energy[eV]  elec[eV/m]    nuclear[eV/m]  range[m]   longitudinal[m]    lateral[m]
1.2  604900000.0  5115000000.0  2.1000000000000003e-08  1.5000000000000002e-08  1.1000000000000001e-08
1.3  629600000.0  5370000000.0  2.1000000000000003e-08  1.5000000000000002e-08  1.1000000000000001e-08
1.4  653400000.0  5616000000.0  2.2000000000000002e-08  1.6e-08  1.2000000000000002e-08
1.5  676300000.0  5854000000.0  2.3e-08  1.6e-08  1.2000000000000002e-08
1.6  698500000.0  6085000000.0  2.4000000000000003e-08  1.7e-08  1.2000000000000002e-08
1.7  720000000.0  6310000000.0  2.4000000000000003e-08  1.7e-08  1.3e-08
1.8  740900000.0  6529000000.0  2.5000000000000002e-08  1.8000000000000002e-08  1.3e-08
2  780900000.0000001  6949000000.0  2.6e-08  1.9e-08  1.4000000000000001e-08
2.25  828300000.0  7448000000.0  2.8000000000000003e-08  2e-08  1.5000000000000002e-08
2.49999  873100000.0  7922000000.0  2.9e-08  2.1000000000000003e-08  1.6e-08
2.74999  915700000.0  8373000000.0  3.0000000000000004e-08  2.2000000000000002e-08  1.6e-08
2.99999  956500000.0  8804000000.0  3.1e-08  2.3e-08  1.7e-08
3.24999  995500000.0  9218000000.0  3.2e-08  2.4000000000000003e-08  1.8000000000000002e-08
3.49999  1033000000.0  9616000000.0  3.4e-08  2.5000000000000002e-08  1.8000000000000002e-08
3.74999  1069000000.0  10000000000.0  3.5e-08  2.5000000000000002e-08  1.9e-08
3.99999  1104000000.0  10370000000.0  3.6000000000000005e-08  2.6e-08  2e-08
4.49999  1171000000.0  11080000000.000002  3.7e-08  2.8000000000000003e-08  2.1000000000000003e-08
4.99999  1235000000.0  11750000000.0  3.9000000000000005e-08  2.9e-08  2.2000000000000002e-08
5.49999  1295000000.0  12380000000.0  4.1e-08  3.0000000000000004e-08  2.3e-08
5.99999  1353000000.0  12990000000.0  4.2000000000000006e-08  3.2e-08  2.4000000000000003e-08
6.49999  1408000000.0  13570000000.0  4.4000000000000004e-08  3.3000000000000004e-08  2.5000000000000002e-08
6.99999  1461000000.0  14120000000.0  4.5000000000000006e-08  3.4e-08  2.5000000000000002e-08
7.99999  1562000000.0  15169999999.999998  4.8000000000000006e-08  3.6000000000000005e-08  2.7e-08
8.99999  1656999999.9999998  16140000000.000002  5.1e-08  3.8e-08  2.8000000000000003e-08
9.99999  1746000000.0  17060000000.0  5.3000000000000005e-08  4e-08  3.0000000000000004e-08
10.9999  1831000000.0000002  17920000000.0  5.6000000000000005e-08  4.2000000000000006e-08  3.1e-08
11.9999  1913000000.0  18740000000.0  5.8e-08  4.4000000000000004e-08  3.2e-08
12.9999  1991000000.0  19520000000.0  6.000000000000001e-08  4.5000000000000006e-08  3.3000000000000004e-08
13.9999  2066000000.0  20270000000.0  6.2e-08  4.7000000000000004e-08  3.5e-08
14.9999  2139000000.0  20980000000.0  6.4e-08  4.9e-08  3.6000000000000005e-08
15.9999  2209000000.0  21670000000.0  6.600000000000001e-08  5.0000000000000004e-08  3.7e-08
16.9999  2277000000.0  22320000000.000004  6.8e-08  5.1e-08  3.8e-08
17.9999  2343000000.0  22960000000.0  7e-08  5.3000000000000005e-08  3.9000000000000005e-08
19.9999  2470000000.0  24160000000.0  7.4e-08  5.6000000000000005e-08  4.1e-08
22.4999  2619000000.0  25560000000.0  7.800000000000001e-08  5.9000000000000006e-08  4.3e-08
24.9999  2761000000.0  26860000000.0  8.2e-08  6.2e-08  4.5000000000000006e-08
27.4999  2896000000.0000005  28080000000.0  8.6e-08  6.5e-08  4.7000000000000004e-08
29.9999  3025000000.0  29230000000.0  9.000000000000001e-08  6.7e-08  4.9e-08
32.4999  3148000000.0000005  30310000000.0  9.400000000000001e-08  7e-08  5.0000000000000004e-08
34.9999  3267000000.0  31330000000.0  9.8e-08  7.3e-08  5.2e-08
37.4999  3382000000.0  32310000000.0  1.01e-07  7.500000000000001e-08  5.4e-08
39.9999  3493000000.0  33240000000.0  1.04e-07  7.7e-08  5.5e-08
44.9999  3704000000.0  34970000000.0  1.11e-07  8.2e-08  5.8e-08
49.9999  3905000000.0  36570000000.0  1.1800000000000001e-07  8.6e-08  6.1e-08
54.9999  4094999999.9999995  38060000000.0  1.24e-07  9.000000000000001e-08  6.4e-08
59.9999  4277000000.0000005  39440000000.0  1.3e-07  9.400000000000001e-08  6.7e-08
64.9999  4452000000.0  40740000000.0  1.35e-07  9.8e-08  7e-08
69.9999  4620000000.0  41960000000.0  1.41e-07  1.02e-07  7.200000000000001e-08
79.9999  4939000000.0  44200000000.0  1.52e-07  1.08e-07  7.7e-08
89.9999  5239000000.0  46220000000.0  1.6200000000000002e-07  1.1500000000000001e-07  8.2e-08
99.9999  5522000000.0  48060000000.0  1.73e-07  1.21e-07  8.6e-08
110  5792000000.000001  49750000000.0  1.8200000000000002e-07  1.27e-07  9.100000000000001e-08
120  6049000000.0  51310000000.0  1.9200000000000003e-07  1.33e-07  9.5e-08
130  6296000000.000001  52750000000.0  2.01e-07  1.3800000000000002e-07  9.9e-08
139.999  6534000000.0  54100000000.0  2.1e-07  1.4400000000000002e-07  1.0300000000000001e-07
149.999  6763000000.0  55359999999.99999  2.1900000000000002e-07  1.49e-07  1.07e-07
159.999  6985000000.0  56550000000.0  2.28e-07  1.54e-07  1.11e-07
169.999  7200000000.0  57670000000.0  2.3700000000000002e-07  1.59e-07  1.14e-07
179.999  7409000000.0  58720000000.0  2.4500000000000004e-07  1.64e-07  1.1800000000000001e-07
199.999  7809000000.0  60670000000.0  2.62e-07  1.7400000000000002e-07  1.2500000000000002e-07
224.999  8283000000.0  62850000000.0  2.82e-07  1.85e-07  1.33e-07
249.999  8731000000.0  64790000000.0  3.01e-07  1.96e-07  1.42e-07
274.999  9157000000.0  66540000000.0  3.2100000000000003e-07  2.0700000000000001e-07  1.49e-07
299.999  9565000000.0  68120000000.0  3.39e-07  2.1800000000000002e-07  1.5700000000000002e-07
324.999  9955000000.0  69560000000.0  3.58e-07  2.28e-07  1.65e-07
349.999  10330000000.0  70880000000.0  3.7600000000000003e-07  2.3800000000000001e-07  1.72e-07
374.999  10690000000.0  72100000000.0  3.94e-07  2.4700000000000003e-07  1.79e-07
399.999  11040000000.0  73220000000.0  4.1200000000000004e-07  2.5700000000000004e-07  1.8600000000000002e-07
449.999  11710000000.0  75230000000.0  4.4600000000000005e-07  2.75e-07  2.0000000000000002e-07
499.999  12350000000.000002  76980000000.0  4.800000000000001e-07  2.9300000000000004e-07  2.1300000000000001e-07
549.999  12950000000.0  78510000000.0  5.140000000000001e-07  3.11e-07  2.26e-07
599.999  13530000000.0  79870000000.0  5.46e-07  3.28e-07  2.3800000000000001e-07
649.999  14080000000.0  81070000000.0  5.79e-07  3.4500000000000003e-07  2.5000000000000004e-07
699.999  14610000000.0  82150000000.0  6.110000000000001e-07  3.61e-07  2.62e-07
799.999  15620000000.0  83989999999.99998  6.74e-07  3.9300000000000004e-07  2.86e-07
899.999  16570000000.0  85490000000.0  7.36e-07  4.25e-07  3.08e-07
999.999  17460000000.0  86730000000.0  7.970000000000001e-07  4.5500000000000004e-07  3.3e-07
1100.0  18310000000.0  87750000000.0  8.580000000000001e-07  4.85e-07  3.5200000000000003e-07
1200.0  19130000000.0  88610000000.0  9.18e-07  5.140000000000001e-07  3.73e-07
1300.0  19910000000.0  89320000000.0  9.770000000000001e-07  5.43e-07  3.9300000000000004e-07
1400.0  20660000000.0  89910000000.0  1.0360000000000001e-06  5.71e-07  4.1400000000000003e-07
1500.0  21389999999.999996  90399999999.99998  1.095e-06  5.99e-07  4.3400000000000005e-07
1600.0  22090000000.0  90810000000.0  1.153e-06  6.27e-07  4.5300000000000005e-07
1700.0  22770000000.0  91140000000.00002  1.2110000000000001e-06  6.550000000000001e-07  4.73e-07
1800.0  23430000000.0  91400000000.0  1.269e-06  6.82e-07  4.92e-07
2000.0  24700000000.000004  91780000000.00002  1.384e-06  7.350000000000001e-07  5.3e-07
2250.0  26190000000.000004  92000000000.0  1.528e-06  8.000000000000001e-07  5.77e-07
2500.0  27610000000.0  92030000000.0  1.6710000000000002e-06  8.650000000000001e-07  6.22e-07
2750.0  28960000000.0  91910000000.0  1.813e-06  9.28e-07  6.67e-07
3000.0  30250000000.0  91670000000.0  1.955e-06  9.9e-07  7.100000000000001e-07
3250.0  31480000000.0  91340000000.0  2.097e-06  1.052e-06  7.54e-07
3500.0  32670000000.0  90950000000.0  2.239e-06  1.113e-06  7.970000000000001e-07
3750.0  33820000000.0  90500000000.0  2.381e-06  1.173e-06  8.39e-07
4000.0  34930000000.0  90010000000.0  2.5230000000000002e-06  1.233e-06  8.81e-07
4500.0  37040000000.0  88950000000.0  2.808e-06  1.35e-06  9.64e-07
5000.0  39050000000.0  87810000000.0  3.0930000000000003e-06  1.4650000000000002e-06  1.046e-06
5500.0  40950000000.0  86630000000.0  3.379e-06  1.579e-06  1.126e-06
6000.0  42770000000.0  85430000000.0  3.665e-06  1.6900000000000001e-06  1.206e-06
6500.0  44520000000.0  84230000000.0  3.9520000000000004e-06  1.8000000000000001e-06  1.285e-06
7000.0  46200000000.0  83040000000.0  4.2410000000000006e-06  1.908e-06  1.364e-06
8000.0  49390000000.0  80710000000.0  4.819e-06  2.12e-06  1.5190000000000002e-06
9000.0  52390000000.0  78480000000.0  5.4010000000000005e-06  2.3260000000000003e-06  1.6730000000000001e-06
10000.0  55220000000.0  76350000000.0  5.985e-06  2.528e-06  1.824e-06
11000.0  57920000000.0  74330000000.0  6.571e-06  2.724e-06  1.974e-06
12000.0  60490000000.0  72410000000.0  7.158000000000001e-06  2.915e-06  2.1230000000000003e-06
13000.0  62960000000.0  70600000000.0  7.747e-06  3.102e-06  2.2700000000000003e-06
14000.0  65340000000.0  68890000000.0  8.337e-06  3.2850000000000003e-06  2.4160000000000002e-06
15000.0  67630000000.0  67270000000.0  8.927000000000001e-06  3.463e-06  2.561e-06
16000.0  69850000000.0  65730000000.00001  9.518000000000001e-06  3.637e-06  2.7040000000000003e-06
17000.0  72000000000.0  64269999999.99999  1.0100000000000002e-05  3.8080000000000002e-06  2.8460000000000004e-06
18000.0  74090000000.0  62880000000.0  1.0700000000000001e-05  3.974e-06  2.9870000000000004e-06
20000.0  78090000000.0  60310000000.0  1.1900000000000001e-05  4.2970000000000005e-06  3.265e-06
22500.0  82830000000.0  57420000000.0  1.3400000000000002e-05  4.682e-06  3.6060000000000003e-06
25000.0  87820000000.0  54830000000.0  1.48e-05  5.047e-06  3.938e-06
27500.0  92770000000.0  52510000000.0  1.63e-05  5.392e-06  4.262e-06
30000.0  97010000000.0  50400000000.0  1.77e-05  5.718e-06  4.577e-06
32500.0  100800000000.0  48490000000.0  1.91e-05  6.031e-06  4.8830000000000005e-06
35000.0  104200000000.0  46740000000.0  2.0600000000000003e-05  6.33e-06  5.1820000000000005e-06
37500.0  107500000000.0  45130000000.0  2.2000000000000003e-05  6.617e-06  5.473e-06
40000.0  110500000000.0  43650000000.0  2.34e-05  6.894e-06  5.757e-06
45000.0  116400000000.0  41010000000.0  2.6200000000000003e-05  7.42e-06  6.307000000000001e-06
50000.0  121900000000.0  38710000000.0  2.8900000000000005e-05  7.91e-06  6.832000000000001e-06
55000.0  127200000000.0  36700000000.0  3.1700000000000005e-05  8.367e-06  7.3360000000000006e-06
60000.0  132300000000.0  34910000000.0  3.44e-05  8.795000000000001e-06  7.818e-06
65000.0  137200000000.0  33320000000.0  3.7000000000000005e-05  9.197e-06  8.282000000000001e-06
70000.0  141900000000.0  31880000000.0  3.96e-05  9.574e-06  8.727000000000001e-06
80000.0  150900000000.0  29410000000.0  4.47e-05  1.0300000000000001e-05  9.568e-06
90000.0  159200000000.0  27340000000.0  4.97e-05  1.0900000000000002e-05  1.0300000000000001e-05
100000.0  166900000000.0  25570000000.0  5.4600000000000006e-05  1.15e-05  1.1100000000000002e-05
110000.0  174200000000.00003  24049999999.999996  5.9300000000000005e-05  1.2e-05  1.18e-05
120000.0  180900000000.0  22730000000.0  6.400000000000001e-05  1.25e-05  1.2400000000000002e-05
130000.0  187300000000.0  21560000000.0  6.85e-05  1.2900000000000002e-05  1.3000000000000001e-05
140000.0  193299999999.99997  20520000000.0  7.290000000000001e-05  1.3300000000000001e-05  1.3600000000000002e-05
150000.0  198900000000.0  19580000000.0  7.730000000000001e-05  1.3700000000000003e-05  1.41e-05
160000.0  204200000000.00003  18740000000.0  8.16e-05  1.4e-05  1.46e-05
170000.0  209300000000.0  17980000000.0  8.580000000000001e-05  1.4400000000000001e-05  1.5100000000000001e-05
180000.0  214100000000.0  17280000000.0  8.99e-05  1.4700000000000002e-05  1.5600000000000003e-05
200000.0  223100000000.0  16060000000.0  9.810000000000001e-05  1.5300000000000003e-05  1.65e-05
225000.0  233299999999.99997  14780000000.0  0.0001079  1.6000000000000003e-05  1.7500000000000002e-05
250000.0  242600000000.00003  13710000000.0  0.00011740000000000001  1.66e-05  1.8400000000000003e-05
275000.0  251300000000.0  12800000000.0  0.00012670000000000002  1.7100000000000002e-05  1.93e-05
300000.0  259400000000.0  12010000000.0  0.00013570000000000002  1.76e-05  2.01e-05
325000.0  267100000000.0  11330000000.0  0.00014460000000000002  1.8e-05  2.08e-05
350000.0  274500000000.0  10720000000.0  0.0001532  1.8400000000000003e-05  2.15e-05
375000.0  281600000000.0  10190000000.0  0.00016160000000000002  1.88e-05  2.2100000000000002e-05
400000.0  288600000000.0  9707000000.0  0.0001699  1.9200000000000003e-05  2.28e-05
450000.0  302100000000.0  8884000000.0  0.00018600000000000002  1.9900000000000003e-05  2.39e-05
500000.0  315300000000.0  8201000000.000001  0.00020140000000000002  2.05e-05  2.4900000000000006e-05
550000.0  328400000000.00006  7625000000.0  0.0002163  2.11e-05  2.5800000000000004e-05
600000.0  341500000000.0  7131999999.999999  0.00023070000000000002  2.15e-05  2.6700000000000002e-05
650000.0  354600000000.0  6704000000.0  0.00024450000000000003  2.2000000000000003e-05  2.75e-05
700000.0  367700000000.00006  6329000000.0  0.00025790000000000003  2.2400000000000002e-05  2.82e-05
800000.0  394200000000.0  5701000000.000001  0.00028350000000000006  2.32e-05  2.9500000000000006e-05
900000.0  420900000000.00006  5195999999.999999  0.0003074  2.39e-05  3.0600000000000005e-05
1000000.0  447500000000.0  4780000000.0  0.00032990000000000005  2.4500000000000003e-05  3.16e-05
1100000.0  474000000000.0  4431000000.0  0.0003512  2.5e-05  3.24e-05
1200000.0  500000000000.0  4133000000.0  0.00037140000000000003  2.54e-05  3.32e-05
1300000.0  525400000000.0  3875000000.0  0.00039060000000000006  2.5800000000000004e-05  3.3900000000000004e-05
1400000.0  550100000000.0  3650000000.0  0.000409  2.6200000000000003e-05  3.4500000000000005e-05
1500000.0  573800000000.0  3452000000.0  0.0004266  2.65e-05  3.5000000000000004e-05
1600000.0  596500000000.0  3276000000.0  0.00044340000000000004  2.6700000000000002e-05  3.55e-05
1700000.0  618100000000.0  3118000000.0  0.0004597  2.7000000000000002e-05  3.6e-05
1800000.0  638500000000.0  2975999999.9999995  0.0004755  2.7200000000000004e-05  3.6400000000000004e-05
2000000.0  675600000000.0  2730000000.0  0.0005057000000000001  2.78e-05  3.72e-05
2250000.0  714900000000.0  2478000000.0  0.0005414  2.85e-05  3.8e-05
2500000.0  746800000000.0001  2272000000.0  0.0005753  2.9100000000000003e-05  3.88e-05
2750000.0  771900000000.0  2099000000.0  0.0006081000000000001  2.96e-05  3.94e-05
3000000.0  791100000000.0  1953000000.0  0.0006399000000000001  3.01e-05  4e-05
3250000.0  805400000000.0001  1827000000.0  0.000671  3.0600000000000005e-05  4.05e-05
3500000.0  815500000000.0  1717000000.0  0.0007017000000000001  3.1e-05  4.1e-05
3750000.0  822200000000.0  1621000000.0  0.0007322  3.15e-05  4.1400000000000003e-05
4000000.0  826300000000.0  1535000000.0  0.0007624  3.19e-05  4.190000000000001e-05
4500000.0  828400000000.0  1390000000.0000002  0.0008226000000000002  3.32e-05  4.27e-05
5000000.0  825100000000.0  1272000000.0  0.0008829000000000002  3.4500000000000005e-05  4.3400000000000005e-05
5500000.0  818500000000.0  1173000000.0  0.0009436000000000001  3.57e-05  4.410000000000001e-05
6000000.0  809800000000.0  1090000000.0  0.0010048000000000001  3.69e-05  4.4800000000000005e-05
6500000.0  799800000000.0  1018000000.0  0.0010668000000000001  3.8100000000000005e-05  4.5400000000000006e-05
7000000.0  789000000000.0  955500000.0  0.0011296000000000001  3.9300000000000007e-05  4.610000000000001e-05
8000000.0  766400000000.0  852400000.0  0.001258  4.35e-05  4.730000000000001e-05
9000000.0  743300000000.0  770400000.0  0.0013903000000000001  4.7600000000000005e-05  4.85e-05
10000000.0  720300000000.0  703700000.0  0.0015268000000000002  5.160000000000001e-05  4.9600000000000006e-05
11000000.0  697900000000.0001  648200000.0  0.0016676  5.56e-05  5.08e-05
12000000.0  676200000000.0  601200000.0  0.0018130000000000002  5.950000000000001e-05  5.2000000000000004e-05
13000000.0  655300000000.0  561000000.0  0.0019631  6.340000000000001e-05  5.3200000000000006e-05
14000000.0  635200000000.0  526100000.0  0.0021179000000000003  6.730000000000001e-05  5.440000000000001e-05
15000000.0  616100000000.0  495499999.99999994  0.0022776000000000003  7.120000000000001e-05  5.56e-05
16000000.0  597900000000.0  468500000.0  0.0024422000000000003  7.510000000000001e-05  5.690000000000001e-05
17000000.0  580600000000.0  444400000.0  0.0026117000000000002  7.910000000000001e-05  5.8200000000000005e-05
18000000.0  564100000000.0  422800000.0  0.0027863000000000002  8.310000000000001e-05  5.9600000000000005e-05
20000000.0  533500000000.0  385600000.0  0.0031506000000000004  9.820000000000002e-05  6.230000000000001e-05
22500000.0  499500000000.0  347900000.0  0.0036347000000000007  0.00012020000000000001  6.610000000000001e-05
25000000.0  472299999999.99994  317200000.0  0.0041491  0.0001409  7.000000000000001e-05
27500000.0  449099999999.99994  291700000.0  0.004691600000000001  0.0001609  7.42e-05
30000000.0  426300000000.0  270300000.0  0.0052627  0.00018050000000000002  7.87e-05
32500000.0  406900000000.0  251900000.0  0.005862600000000001  0.0002  8.340000000000001e-05
35000000.0  389500000000.0  235900000.0  0.0064903  0.00021930000000000002  8.83e-05
37500000.0  373700000000.0  222000000.0  0.0071452  0.00023850000000000002  9.350000000000001e-05
40000000.0  359200000000.0  209700000.0  0.007827200000000001  0.00025780000000000003  9.890000000000002e-05
45000000.0  333800000000.0  188900000.0  0.0092706  0.0003298  0.0001104
50000000.0  312100000000.0  172100000.0  0.0108  0.00039680000000000005  0.0001228
55000000.0  293200000000.0  158100000.0  0.0125  0.00046150000000000005  0.0001361
60000000.0  276600000000.0  146400000.0  0.014199999999999999  0.0005250000000000001  0.00015010000000000002
65000000.0  261900000000.0  136300000.0  0.0161  0.000588  0.00016500000000000003
70000000.0  248600000000.0  127600000.0  0.018000000000000002  0.0006511  0.00018070000000000003
80000000.0  225799999999.99997  113300000.0  0.0223  0.0008853000000000001  0.00021440000000000003
90000000.0  206700000000.00003  101900000.0  0.0269  0.001103  0.00025120000000000003
100000000.0  190500000000.0  92770000.0  0.0319  0.0013153000000000001  0.00029110000000000003
110000000.0  176600000000.0  85170000.0  0.0374  0.0015269  0.000334
120000000.0  164400000000.0  78780000.0  0.0432  0.0017404  0.0003801
130000000.0  153800000000.0  73320000.0  0.0495  0.001957  0.0004293
140000000.0  144400000000.0  68590000.0  0.0562  0.0021778  0.00048170000000000005
150000000.0  136100000000.0  64460000.0  0.0634  0.0024032000000000003  0.0005373
160000000.0  128600000000.0  60830000.0  0.0709  0.0026334  0.0005960000000000001
170000000.0  122000000000.0  57590000.0  0.0789  0.0028686000000000002  0.0006580000000000001
180000000.0  116000000000.0  54700000.0  0.0873  0.0031088  0.0007231000000000001
200000000.0  105800000000.0  49740000.0  0.1054  0.0040299  0.0008631000000000001
225000000.0  95600000000.0  44720000.0  0.1302  0.0053572  0.0010557
250000000.0  87540000000.0  40660000.0  0.1575  0.0066156  0.0012673
275000000.0  81130000000.0  37300000.0  0.1872  0.0078441  0.0014967
300000000.0  75980000000.0  34470000.0  0.219  0.009055800000000001  0.0017426
325000000.0  71810000000.0  32060000.0  0.2529  0.0103  0.0020035
350000000.0  68420000000.0  29970000.0  0.28850000000000003  0.011399999999999999  0.0022777
375000000.0  65039999999.99999  28149999.999999996  0.326  0.0126  0.0025647000000000005
400000000.0  61710000000.0  26549999.999999996  0.3655  0.0138  0.0028655000000000004
450000000.0  56070000000.0  23850000.0  0.45049999999999996  0.0183  0.0035097000000000006
500000000.0  51480000000.0  21670000.0  0.5435  0.0226  0.004209900000000001
