energy[eV]  elec[eV/m]    nuclear[eV/m]  range[m]   longitudinal[m]    lateral[m]
1.2  365300000.0  6262000000.0  2.4000000000000003e-08  1.2000000000000002e-08  9.000000000000001e-09
1.3  380200000.0  6593000000.0  2.5000000000000002e-08  1.3e-08  9.000000000000001e-09
1.4  394600000.0  6913000000.0  2.5000000000000002e-08  1.3e-08  9.000000000000001e-09
1.5  408400000.0  7224000000.0  2.6e-08  1.4000000000000001e-08  1e-08
1.6  421800000.0  7527000000.0  2.7e-08  1.4000000000000001e-08  1e-08
1.7  434800000.0  7822000000.0  2.8000000000000003e-08  1.5000000000000002e-08  1e-08
1.8  447400000.0  8110000000.000001  2.9e-08  1.5000000000000002e-08  1.1000000000000001e-08
2  471600000.0  8667000000.0  3.0000000000000004e-08  1.6e-08  1.1000000000000001e-08
2.25  500200000.0  9331000000.0  3.2e-08  1.7e-08  1.2000000000000002e-08
2.49999  527200000.0  9965000000.0  3.3000000000000004e-08  1.8000000000000002e-08  1.3e-08
2.74999  553000000.0  10570000000.0  3.4e-08  1.8000000000000002e-08  1.3e-08
2.99999  577600000.0  11160000000.000002  3.6000000000000005e-08  1.9e-08  1.4000000000000001e-08
3.24999  601200000.0  11720000000.0  3.7e-08  2e-08  1.5000000000000002e-08
3.49999  623800000.0  12260000000.0  3.8e-08  2.1000000000000003e-08  1.5000000000000002e-08
3.74999  645700000.0  12790000000.0  3.9000000000000005e-08  2.1000000000000003e-08  1.6e-08
3.99999  666900000.0  13300000000.0  4e-08  2.2000000000000002e-08  1.6e-08
4.49999  707400000.0  14290000000.0  4.2000000000000006e-08  2.3e-08  1.7e-08
4.99999  745600000.0  15220000000.0  4.4000000000000004e-08  2.4000000000000003e-08  1.8000000000000002e-08
5.49999  782000000.0  16110000000.0  4.6e-08  2.5000000000000002e-08  1.9e-08
5.99999  816800000.0  16970000000.0  4.8000000000000006e-08  2.6e-08  1.9e-08
6.49999  850200000.0  17790000000.0  4.9e-08  2.7e-08  2e-08
6.99999  882200000.0000001  18580000000.0  5.1e-08  2.8000000000000003e-08  2.1000000000000003e-08
7.99999  943200000.0  20090000000.0  5.4e-08  3.0000000000000004e-08  2.2000000000000002e-08
8.99999  1000000000.0  21509999999.999996  5.7e-08  3.2e-08  2.3e-08
9.99999  1053999999.9999999  22860000000.0  5.9000000000000006e-08  3.3000000000000004e-08  2.4000000000000003e-08
10.9999  1106000000.0  24140000000.0  6.2e-08  3.5e-08  2.5000000000000002e-08
11.9999  1155000000.0  25360000000.0  6.4e-08  3.6000000000000005e-08  2.6e-08
12.9999  1202000000.0  26530000000.0  6.600000000000001e-08  3.7e-08  2.7e-08
13.9999  1248000000.0  27660000000.0  6.8e-08  3.9000000000000005e-08  2.8000000000000003e-08
14.9999  1291000000.0  28750000000.0  7e-08  4e-08  2.9e-08
15.9999  1334000000.0  29790000000.0  7.200000000000001e-08  4.1e-08  3.0000000000000004e-08
16.9999  1375000000.0  30810000000.0  7.4e-08  4.2000000000000006e-08  3.1e-08
17.9999  1414999999.9999998  31790000000.0  7.6e-08  4.3e-08  3.1e-08
19.9999  1491000000.0  33670000000.0  7.9e-08  4.5000000000000006e-08  3.3000000000000004e-08
22.4999  1582000000.0  35890000000.0  8.3e-08  4.8000000000000006e-08  3.5e-08
24.9999  1666999999.9999998  37970000000.0  8.700000000000001e-08  5.0000000000000004e-08  3.6000000000000005e-08
27.4999  1749000000.0  39940000000.0  9.100000000000001e-08  5.2e-08  3.8e-08
29.9999  1826000000.0000002  41810000000.0  9.400000000000001e-08  5.4e-08  3.9000000000000005e-08
32.4999  1901000000.0  43600000000.0  9.8e-08  5.6000000000000005e-08  4e-08
34.9999  1973000000.0  45300000000.0  1.01e-07  5.8e-08  4.2000000000000006e-08
37.4999  2042000000.0  46940000000.0  1.04e-07  5.9000000000000006e-08  4.3e-08
39.9999  2109000000.0  48510000000.0  1.07e-07  6.1e-08  4.4000000000000004e-08
44.9999  2237000000.0  51480000000.0  1.13e-07  6.4e-08  4.6e-08
49.9999  2358000000.0  54260000000.0  1.1900000000000001e-07  6.7e-08  4.9e-08
54.9999  2473000000.0  56880000000.0  1.24e-07  7e-08  5.1e-08
59.9999  2582999999.9999995  59340000000.0  1.29e-07  7.3e-08  5.3000000000000005e-08
64.9999  2688000000.0  61680000000.0  1.34e-07  7.6e-08  5.4e-08
69.9999  2790000000.0000005  63910000000.0  1.3900000000000001e-07  7.800000000000001e-08  5.6000000000000005e-08
79.9999  2983000000.0  68060000000.0  1.48e-07  8.3e-08  6.000000000000001e-08
89.9999  3163000000.0000005  71890000000.0  1.5700000000000002e-07  8.700000000000001e-08  6.300000000000001e-08
99.9999  3335000000.0  75430000000.0  1.65e-07  9.2e-08  6.600000000000001e-08
110  3497000000.0  78730000000.0  1.73e-07  9.600000000000001e-08  6.900000000000001e-08
120  3653000000.0  81830000000.0  1.8000000000000002e-07  9.9e-08  7.200000000000001e-08
130  3802000000.0  84750000000.0  1.8800000000000002e-07  1.0300000000000001e-07  7.4e-08
139.999  3946000000.0  87510000000.0  1.95e-07  1.07e-07  7.7e-08
149.999  4084000000.0  90130000000.0  2.02e-07  1.1e-07  7.9e-08
159.999  4218000000.0  92620000000.0  2.09e-07  1.13e-07  8.2e-08
169.999  4348000000.0  94990000000.0  2.15e-07  1.17e-07  8.400000000000001e-08
179.999  4474000000.0  97270000000.0  2.22e-07  1.2000000000000002e-07  8.6e-08
199.999  4716000000.0  101500000000.0  2.34e-07  1.2600000000000002e-07  9.100000000000001e-08
224.999  5002000000.0  106400000000.0  2.5000000000000004e-07  1.33e-07  9.600000000000001e-08
249.999  5272000000.0  110900000000.0  2.6400000000000003e-07  1.3900000000000001e-07  1.01e-07
274.999  5530000000.0  115000000000.0  2.7800000000000003e-07  1.46e-07  1.0600000000000001e-07
299.999  5776000000.0  118800000000.00002  2.92e-07  1.52e-07  1.1e-07
324.999  6012000000.0  122300000000.0  3.0500000000000004e-07  1.58e-07  1.1500000000000001e-07
349.999  6238000000.0  125700000000.0  3.18e-07  1.64e-07  1.1900000000000001e-07
374.999  6457000000.000001  128800000000.00002  3.3100000000000004e-07  1.7000000000000001e-07  1.23e-07
399.999  6669000000.000001  131700000000.0  3.4300000000000004e-07  1.7500000000000002e-07  1.27e-07
449.999  7074000000.0  137100000000.00002  3.6700000000000004e-07  1.8600000000000002e-07  1.35e-07
499.999  7456000000.0  142000000000.0  3.9100000000000005e-07  1.96e-07  1.43e-07
549.999  7820000000.0  146400000000.0  4.13e-07  2.0600000000000002e-07  1.5000000000000002e-07
599.999  8168000000.0  150500000000.0  4.35e-07  2.15e-07  1.5700000000000002e-07
649.999  8502000000.0  154200000000.0  4.5700000000000003e-07  2.2400000000000002e-07  1.64e-07
699.999  8822000000.0  157700000000.0  4.78e-07  2.33e-07  1.71e-07
799.999  9432000000.0  163900000000.0  5.2e-07  2.5000000000000004e-07  1.84e-07
899.999  10000000000.0  169300000000.0  5.6e-07  2.67e-07  1.97e-07
999.999  10540000000.0  174100000000.0  5.99e-07  2.8300000000000003e-07  2.09e-07
1100.0  11060000000.0  178400000000.0  6.37e-07  2.98e-07  2.2e-07
1200.0  11550000000.0  182300000000.0  6.74e-07  3.13e-07  2.32e-07
1300.0  12020000000.0  185799999999.99997  7.110000000000001e-07  3.28e-07  2.43e-07
1400.0  12480000000.0  189000000000.0  7.47e-07  3.42e-07  2.53e-07
1500.0  12910000000.0  191900000000.0  7.830000000000001e-07  3.56e-07  2.6400000000000003e-07
1600.0  13340000000.0  194600000000.0  8.18e-07  3.7e-07  2.74e-07
1700.0  13750000000.0  197000000000.0  8.53e-07  3.8300000000000003e-07  2.85e-07
1800.0  14150000000.0  199300000000.0  8.87e-07  3.97e-07  2.9500000000000003e-07
2000.0  14910000000.000002  203400000000.0  9.55e-07  4.23e-07  3.1400000000000003e-07
2250.0  15820000000.0  207700000000.0  1.0390000000000001e-06  4.5500000000000004e-07  3.3800000000000004e-07
2500.0  16670000000.0  211400000000.0  1.1210000000000002e-06  4.86e-07  3.61e-07
2750.0  17490000000.0  214500000000.0  1.202e-06  5.16e-07  3.8400000000000005e-07
3000.0  18260000000.0  217200000000.0  1.2820000000000002e-06  5.46e-07  4.06e-07
3250.0  19010000000.0  219500000000.0  1.362e-06  5.75e-07  4.28e-07
3500.0  19730000000.0  221400000000.0  1.4400000000000002e-06  6.040000000000001e-07  4.49e-07
3750.0  20420000000.0  223200000000.0  1.5180000000000001e-06  6.33e-07  4.7000000000000005e-07
4000.0  21090000000.0  224600000000.0  1.596e-06  6.61e-07  4.91e-07
4500.0  22370000000.0  227000000000.0  1.7500000000000002e-06  7.170000000000001e-07  5.32e-07
5000.0  23580000000.0  228800000000.0  1.903e-06  7.71e-07  5.72e-07
5500.0  24730000000.0  230100000000.00003  2.0550000000000002e-06  8.25e-07  6.110000000000001e-07
6000.0  25830000000.0  231100000000.0  2.2070000000000002e-06  8.780000000000001e-07  6.5e-07
6500.0  26880000000.0  231700000000.00003  2.358e-06  9.310000000000001e-07  6.88e-07
7000.0  27900000000.0  232000000000.0  2.508e-06  9.830000000000002e-07  7.25e-07
8000.0  29830000000.0  232100000000.0  2.809e-06  1.0870000000000001e-06  7.990000000000001e-07
9000.0  31630000000.0  231600000000.0  3.1100000000000003e-06  1.1890000000000002e-06  8.720000000000001e-07
10000.0  33350000000.0  230700000000.0  3.412e-06  1.2900000000000001e-06  9.43e-07
11000.0  34970000000.0  229500000000.0  3.7140000000000004e-06  1.39e-06  1.0140000000000002e-06
12000.0  36530000000.0  228100000000.0  4.017000000000001e-06  1.489e-06  1.0840000000000001e-06
13000.0  38020000000.0  226500000000.0  4.321000000000001e-06  1.588e-06  1.153e-06
14000.0  39460000000.0  224800000000.0  4.627e-06  1.6870000000000001e-06  1.2220000000000001e-06
15000.0  40840000000.0  223000000000.0  4.9340000000000005e-06  1.785e-06  1.291e-06
16000.0  42180000000.0  221200000000.0  5.2430000000000005e-06  1.8820000000000001e-06  1.3600000000000001e-06
17000.0  43480000000.0  219300000000.0  5.553e-06  1.979e-06  1.4280000000000001e-06
18000.0  44740000000.0  217399999999.99997  5.865000000000001e-06  2.076e-06  1.4960000000000002e-06
20000.0  47160000000.0  213600000000.0  6.494e-06  2.2690000000000002e-06  1.632e-06
22500.0  50020000000.0  208900000000.0  7.2900000000000005e-06  2.509e-06  1.8010000000000002e-06
25000.0  52720000000.0  204200000000.00003  8.096e-06  2.747e-06  1.97e-06
27500.0  55300000000.0  199700000000.0  8.912e-06  2.984e-06  2.1400000000000003e-06
30000.0  57760000000.0  195400000000.0  9.738e-06  3.219e-06  2.3090000000000003e-06
32500.0  60119999999.99999  191300000000.0  1.0600000000000002e-05  3.4530000000000002e-06  2.48e-06
35000.0  62380000000.00001  187300000000.0  1.14e-05  3.6850000000000003e-06  2.65e-06
37500.0  64570000000.0  183500000000.0  1.23e-05  3.916e-06  2.821e-06
40000.0  66689999999.99999  179800000000.0  1.3100000000000002e-05  4.145e-06  2.9930000000000004e-06
45000.0  70740000000.0  172900000000.0  1.4900000000000001e-05  4.602e-06  3.339e-06
50000.0  76570000000.0  166600000000.0  1.66e-05  5.048000000000001e-06  3.687e-06
55000.0  83600000000.0  160900000000.0  1.8400000000000003e-05  5.48e-06  4.038e-06
60000.0  88900000000.0  155500000000.0  2.0200000000000003e-05  5.898e-06  4.3870000000000005e-06
65000.0  93090000000.0  150600000000.0  2.2000000000000003e-05  6.307000000000001e-06  4.736e-06
70000.0  96540000000.0  146000000000.0  2.3800000000000003e-05  6.71e-06  5.083e-06
80000.0  102200000000.0  137700000000.0  2.7400000000000005e-05  7.503000000000001e-06  5.774e-06
90000.0  107000000000.0  130500000000.0  3.1100000000000004e-05  8.277e-06  6.4610000000000005e-06
100000.0  111500000000.0  124100000000.0  3.4800000000000006e-05  9.033e-06  7.1440000000000005e-06
110000.0  115900000000.0  118400000000.0  3.86e-05  9.769e-06  7.825e-06
120000.0  120399999999.99998  113300000000.0  4.25e-05  1.0500000000000001e-05  8.502000000000001e-06
130000.0  125000000000.0  108699999999.99998  4.63e-05  1.1200000000000001e-05  9.174e-06
140000.0  129700000000.0  104500000000.0  5.02e-05  1.1900000000000001e-05  9.84e-06
150000.0  134500000000.0  100600000000.0  5.4000000000000005e-05  1.25e-05  1.0500000000000001e-05
160000.0  139300000000.0  97129999999.99998  5.7900000000000005e-05  1.3100000000000002e-05  1.1200000000000001e-05
170000.0  144200000000.0  93890000000.0  6.170000000000001e-05  1.3700000000000003e-05  1.18e-05
180000.0  149200000000.0  90890000000.0  6.55e-05  1.43e-05  1.2400000000000002e-05
200000.0  159200000000.0  85520000000.0  7.31e-05  1.54e-05  1.3700000000000003e-05
225000.0  171700000000.00003  79750000000.0  8.230000000000001e-05  1.67e-05  1.5100000000000001e-05
250000.0  184200000000.00003  74820000000.0  9.140000000000001e-05  1.79e-05  1.65e-05
275000.0  196300000000.0  70550000000.0  0.00010020000000000001  1.9e-05  1.79e-05
300000.0  208200000000.0  66800000000.0  0.00010880000000000002  2e-05  1.91e-05
325000.0  219700000000.0  63480000000.0  0.00011720000000000002  2.09e-05  2.03e-05
350000.0  230799999999.99997  60519999999.99999  0.0001254  2.1700000000000002e-05  2.15e-05
375000.0  241500000000.0  57859999999.99999  0.00013340000000000002  2.25e-05  2.25e-05
400000.0  251900000000.0  55450000000.0  0.00014110000000000001  2.32e-05  2.3500000000000002e-05
450000.0  271600000000.0  51260000000.0  0.0001562  2.4500000000000003e-05  2.54e-05
500000.0  290100000000.0  47730000000.0  0.0001706  2.57e-05  2.71e-05
550000.0  307500000000.0  44710000000.0  0.0001845  2.6700000000000002e-05  2.8700000000000003e-05
600000.0  324000000000.0  42090000000.0  0.00019780000000000004  2.76e-05  3.01e-05
650000.0  339799999999.99994  39800000000.0  0.00021070000000000003  2.85e-05  3.1400000000000004e-05
700000.0  354900000000.0  37770000000.0  0.00022320000000000003  2.92e-05  3.27e-05
800000.0  383900000000.0  34340000000.0  0.00024710000000000004  3.0600000000000005e-05  3.4800000000000006e-05
900000.0  411800000000.0  31530000000.0  0.0002697  3.180000000000001e-05  3.680000000000001e-05
1000000.0  438900000000.0  29200000000.0  0.000291  3.28e-05  3.85e-05
1100000.0  465800000000.0  27220000000.0  0.00031140000000000003  3.3700000000000006e-05  4e-05
1200000.0  492700000000.00006  25510000000.0  0.0003307  3.44e-05  4.1400000000000003e-05
1300000.0  519700000000.0  24030000000.0  0.00034920000000000003  3.51e-05  4.26e-05
1400000.0  546900000000.0  22730000000.0  0.0003668  3.57e-05  4.3700000000000005e-05
1500000.0  574300000000.0  21570000000.0  0.0003837  3.6200000000000006e-05  4.47e-05
1600000.0  602000000000.0  20540000000.0  0.00039990000000000007  3.6700000000000004e-05  4.56e-05
1700000.0  630000000000.0  19610000000.0  0.00041530000000000007  3.71e-05  4.6500000000000005e-05
1800000.0  658199999999.9999  18770000000.0  0.00043020000000000005  3.7500000000000003e-05  4.730000000000001e-05
2000000.0  715300000000.0  17300000000.0  0.0004582  3.83e-05  4.8700000000000005e-05
2250000.0  787300000000.0  15790000000.0  0.0004904  3.91e-05  5.0100000000000005e-05
2500000.0  859500000000.0  14540000000.0  0.0005200000000000001  3.9800000000000005e-05  5.13e-05
2750000.0  931000000000.0  13490000000.0  0.0005472000000000001  4.0300000000000004e-05  5.2400000000000007e-05
3000000.0  1001000000000.0  12589999999.999998  0.0005726  4.08e-05  5.3200000000000006e-05
3250000.0  1069000000000.0  11820000000.0  0.0005963000000000001  4.110000000000001e-05  5.4000000000000005e-05
3500000.0  1135000000000.0  11140000000.000002  0.0006186000000000001  4.1500000000000006e-05  5.47e-05
3750000.0  1198000000000.0  10540000000.0  0.0006397  4.18e-05  5.530000000000001e-05
4000000.0  1257000000000.0  10009999999.999998  0.0006598000000000001  4.2000000000000004e-05  5.580000000000001e-05
4500000.0  1366000000000.0  9104000000.0  0.0006975000000000001  4.26e-05  5.67e-05
5000000.0  1460000000000.0  8359000000.0  0.0007325000000000001  4.31e-05  5.75e-05
5500000.0  1541000000000.0  7735000000.0  0.0007655  4.360000000000001e-05  5.81e-05
6000000.0  1609000000000.0  7204000000.0  0.0007970000000000001  4.4000000000000006e-05  5.8700000000000004e-05
6500000.0  1666000000000.0  6747000000.0  0.0008273000000000001  4.43e-05  5.92e-05
7000000.0  1713000000000.0  6348000000.0  0.0008567000000000001  4.460000000000001e-05  5.97e-05
8000000.0  1783000000000.0  5685000000.0  0.0009135  4.55e-05  6.05e-05
9000000.0  1829000000000.0  5155999999.999999  0.0009686000000000001  4.64e-05  6.110000000000001e-05
10000000.0  1858000000000.0  4723000000.0  0.0010226  4.72e-05  6.170000000000001e-05
11000000.0  1876000000000.0  4362000000.0  0.0010760000000000001  4.7900000000000006e-05  6.230000000000001e-05
12000000.0  1885000000000.0  4055000000.0000005  0.0011290000000000002  4.860000000000001e-05  6.280000000000001e-05
13000000.0  1887000000000.0  3791000000.0  0.0011818000000000002  4.93e-05  6.330000000000001e-05
14000000.0  1885000000000.0  3562000000.0  0.0012347  5e-05  6.37e-05
15000000.0  1880000000000.0  3361000000.0  0.0012876  5.0600000000000003e-05  6.410000000000001e-05
16000000.0  1872000000000.0  3182000000.0  0.0013408000000000003  5.13e-05  6.450000000000001e-05
17000000.0  1862000000000.0  3023000000.0  0.0013943000000000002  5.190000000000001e-05  6.49e-05
18000000.0  1850000000000.0  2880000000.0  0.0014480000000000003  5.2600000000000005e-05  6.53e-05
20000000.0  1822000000000.0  2633000000.0  0.0015567  5.4900000000000006e-05  6.6e-05
22500000.0  1783000000000.0  2381000000.0  0.0016952000000000002  5.85e-05  6.68e-05
25000000.0  1742000000000.0  2176000000.0  0.0018368000000000002  6.2e-05  6.76e-05
27500000.0  1699000000000.0  2005000000.0  0.0019819  6.55e-05  6.840000000000001e-05
30000000.0  1657000000000.0  1860999999.9999998  0.0021307  6.890000000000001e-05  6.92e-05
32500000.0  1615000000000.0  1737000000.0  0.0022833000000000003  7.240000000000001e-05  7.000000000000001e-05
35000000.0  1574000000000.0  1630000000.0  0.0024399000000000005  7.59e-05  7.08e-05
37500000.0  1535000000000.0  1535000000.0  0.0026006000000000002  7.93e-05  7.16e-05
40000000.0  1497000000000.0  1452000000.0  0.0027653  8.280000000000001e-05  7.240000000000001e-05
45000000.0  1426000000000.0  1311000000.0  0.0031071000000000002  9.62e-05  7.410000000000001e-05
50000000.0  1371000000000.0  1196000000.0  0.0034644000000000003  0.00010890000000000002  7.580000000000001e-05
55000000.0  1322000000000.0  1101000000.0  0.0038356  0.0001212  7.76e-05
60000000.0  1272000000000.0  1021000000.0  0.0042209000000000005  0.0001331  7.950000000000001e-05
65000000.0  1229000000000.0  951700000.0  0.0046205000000000005  0.00014480000000000002  8.140000000000001e-05
70000000.0  1190000000000.0  891900000.0  0.005033600000000001  0.0001564  8.340000000000001e-05
80000000.0  1121000000000.0  793399999.9999999  0.0058991  0.000199  8.76e-05
90000000.0  1061000000000.0  715500000.0  0.006815700000000001  0.0002379  9.220000000000002e-05
100000000.0  1009000000000.0  652100000.0  0.0077818  0.0002748  9.710000000000002e-05
110000000.0  962099999999.9999  599600000.0  0.0087965  0.0003104  0.0001023
120000000.0  920300000000.0  555200000.0  0.009858800000000001  0.00034520000000000004  0.0001078
130000000.0  882300000000.0  517300000.0  0.011000000000000001  0.00037960000000000007  0.00011360000000000001
140000000.0  847500000000.0  484500000.0  0.0121  0.0004137  0.00011970000000000002
150000000.0  815400000000.0001  455700000.0  0.013300000000000001  0.0004477000000000001  0.0001261
160000000.0  785800000000.0  430400000.0  0.0146  0.00048170000000000005  0.0001328
170000000.0  758100000000.0  407799999.99999994  0.0159  0.0005158000000000001  0.0001397
180000000.0  732300000000.0  387700000.0  0.0172  0.00055  0.000147
200000000.0  685500000000.0  353000000.0  0.02  0.0006804000000000002  0.0001622
225000000.0  634300000000.0  317800000.0  0.023799999999999998  0.0008673000000000001  0.00018280000000000003
250000000.0  589900000000.0  289300000.0  0.0279  0.0010432  0.00020510000000000003
275000000.0  550900000000.0  265700000.0  0.0323  0.0012147  0.00022890000000000003
300000000.0  516599999999.99994  245800000.0  0.037000000000000005  0.0013848  0.00025440000000000006
325000000.0  486200000000.0  228800000.0  0.042  0.0015552000000000003  0.0002816
350000000.0  459200000000.0  214099999.99999997  0.04730000000000001  0.001727  0.00031030000000000006
375000000.0  435200000000.00006  201300000.0  0.0529  0.0019007000000000002  0.00034060000000000004
400000000.0  413700000000.0  189900000.0  0.0587  0.0020767  0.0003726
