energy[eV]  elec[eV/m]    nuclear[eV/m]  range[m]   longitudinal[m]    lateral[m]
1.2  400099999.99999994  5853000000.0  3.1e-08  1.1000000000000001e-08  8e-09
1.3  416400000.00000006  6179000000.0  3.3000000000000004e-08  1.1000000000000001e-08  8e-09
1.4  432100000.0  6496000000.0  3.4e-08  1.2000000000000002e-08  8e-09
1.5  447300000.0  6805000000.0  3.5e-08  1.2000000000000002e-08  9.000000000000001e-09
1.6  462000000.0  7107000000.0  3.6000000000000005e-08  1.2000000000000002e-08  9.000000000000001e-09
1.7  476200000.0  7402000000.0  3.7e-08  1.3e-08  9.000000000000001e-09
1.8  490000000.0  7691000000.0  3.8e-08  1.3e-08  9.000000000000001e-09
2  516500000.0  8252000000.0  4e-08  1.4000000000000001e-08  1e-08
2.25  547800000.0  8924000000.0  4.2000000000000006e-08  1.5000000000000002e-08  1.1000000000000001e-08
2.49999  577500000.0  9570000000.0  4.4000000000000004e-08  1.5000000000000002e-08  1.1000000000000001e-08
2.74999  605700000.0  10190000000.0  4.6e-08  1.6e-08  1.2000000000000002e-08
2.99999  632600000.0  10790000000.0  4.8000000000000006e-08  1.7e-08  1.2000000000000002e-08
3.24999  658400000.0  11370000000.0  4.9e-08  1.7e-08  1.3e-08
3.49999  683300000.0  11940000000.0  5.1e-08  1.8000000000000002e-08  1.3e-08
3.74999  707300000.0  12490000000.000002  5.2e-08  1.9e-08  1.4000000000000001e-08
3.99999  730500000.0  13020000000.0  5.4e-08  1.9e-08  1.4000000000000001e-08
4.49999  774799999.9999999  14050000000.0  5.6000000000000005e-08  2e-08  1.5000000000000002e-08
4.99999  816700000.0000001  15040000000.0  5.9000000000000006e-08  2.1000000000000003e-08  1.6e-08
5.49999  856500000.0  15990000000.0  6.1e-08  2.2000000000000002e-08  1.6e-08
5.99999  894600000.0  16900000000.0  6.4e-08  2.3e-08  1.7e-08
6.49999  931100000.0  17790000000.0  6.600000000000001e-08  2.4000000000000003e-08  1.8000000000000002e-08
6.99999  966299999.9999999  18650000000.0  6.8e-08  2.5000000000000002e-08  1.8000000000000002e-08
7.99999  1033000000.0  20290000000.0  7.1e-08  2.6e-08  1.9e-08
8.99999  1096000000.0  21850000000.0  7.500000000000001e-08  2.8000000000000003e-08  2e-08
9.99999  1155000000.0  23330000000.0  7.800000000000001e-08  2.9e-08  2.1000000000000003e-08
10.9999  1211000000.0  24760000000.0  8.100000000000001e-08  3.0000000000000004e-08  2.2000000000000002e-08
11.9999  1265000000.0  26130000000.0  8.400000000000001e-08  3.1e-08  2.3e-08
12.9999  1317000000.0  27450000000.0  8.700000000000001e-08  3.2e-08  2.4000000000000003e-08
13.9999  1367000000.0  28720000000.0  8.9e-08  3.3000000000000004e-08  2.5000000000000002e-08
14.9999  1414999999.9999998  29960000000.0  9.2e-08  3.4e-08  2.6e-08
15.9999  1461000000.0  31160000000.0  9.400000000000001e-08  3.5e-08  2.6e-08
16.9999  1506000000.0  32330000000.0  9.600000000000001e-08  3.6000000000000005e-08  2.7e-08
17.9999  1550000000.0  33470000000.0  9.8e-08  3.7e-08  2.8000000000000003e-08
19.9999  1633000000.0  35660000000.0  1.0300000000000001e-07  3.9000000000000005e-08  2.9e-08
22.4999  1732000000.0  38270000000.0  1.08e-07  4.1e-08  3.0000000000000004e-08
24.9999  1826000000.0000002  40740000000.0  1.1200000000000001e-07  4.3e-08  3.2e-08
27.4999  1915000000.0  43110000000.0  1.16e-07  4.4000000000000004e-08  3.3000000000000004e-08
29.9999  2000000000.0  45370000000.0  1.21e-07  4.6e-08  3.4e-08
32.4999  2082000000.0  47539999999.99999  1.24e-07  4.8000000000000006e-08  3.5e-08
34.9999  2161000000.0  49630000000.0  1.28e-07  4.9e-08  3.6000000000000005e-08
37.4999  2237000000.0  51660000000.0  1.3200000000000002e-07  5.1e-08  3.7e-08
39.9999  2310000000.0  53610000000.0  1.35e-07  5.2e-08  3.8e-08
44.9999  2450000000.0  57360000000.0  1.42e-07  5.5e-08  4e-08
49.9999  2582999999.9999995  60890000000.00001  1.48e-07  5.7e-08  4.2000000000000006e-08
54.9999  2708999999.9999995  64260000000.0  1.54e-07  5.9000000000000006e-08  4.3e-08
59.9999  2829000000.0  67470000000.0  1.59e-07  6.2e-08  4.5000000000000006e-08
64.9999  2945000000.0  70540000000.0  1.65e-07  6.4e-08  4.7000000000000004e-08
69.9999  3056000000.0  73490000000.0  1.7000000000000001e-07  6.600000000000001e-08  4.8000000000000006e-08
79.9999  3267000000.0  79070000000.0  1.8000000000000002e-07  6.900000000000001e-08  5.1e-08
89.9999  3464999999.9999995  84290000000.0  1.89e-07  7.3e-08  5.3000000000000005e-08
99.9999  3652000000.0000005  89200000000.0  1.97e-07  7.6e-08  5.5e-08
110  3831000000.0  93840000000.0  2.0500000000000002e-07  7.9e-08  5.8e-08
120  4001000000.0  98250000000.0  2.1300000000000001e-07  8.2e-08  6.000000000000001e-08
130  4164000000.0  102500000000.0  2.2e-07  8.500000000000001e-08  6.2e-08
139.999  4321000000.0  106500000000.0  2.27e-07  8.800000000000001e-08  6.300000000000001e-08
149.999  4473000000.0  110300000000.0  2.34e-07  9.000000000000001e-08  6.5e-08
159.999  4620000000.0  114100000000.0  2.41e-07  9.300000000000001e-08  6.7e-08
169.999  4762000000.0  117600000000.0  2.4700000000000003e-07  9.5e-08  6.900000000000001e-08
179.999  4900000000.0  121100000000.0  2.54e-07  9.700000000000001e-08  7e-08
199.999  5165000000.0  127600000000.0  2.66e-07  1.02e-07  7.3e-08
224.999  5478000000.0  135300000000.0  2.8e-07  1.07e-07  7.7e-08
249.999  5775000000.0  142400000000.0  2.9300000000000004e-07  1.1200000000000001e-07  8.100000000000001e-08
274.999  6057000000.0  149100000000.0  3.06e-07  1.16e-07  8.400000000000001e-08
299.999  6326000000.000001  155500000000.0  3.1900000000000004e-07  1.21e-07  8.700000000000001e-08
324.999  6584000000.0  161400000000.0  3.3100000000000004e-07  1.2500000000000002e-07  9.000000000000001e-08
349.999  6833000000.0  167100000000.0  3.42e-07  1.29e-07  9.300000000000001e-08
374.999  7073000000.0  172500000000.0  3.53e-07  1.33e-07  9.600000000000001e-08
399.999  7305000000.0  177700000000.0  3.6400000000000003e-07  1.36e-07  9.9e-08
449.999  7748000000.0  187399999999.99997  3.85e-07  1.43e-07  1.04e-07
499.999  8167000000.0  196400000000.0  4.0500000000000004e-07  1.5000000000000002e-07  1.0900000000000001e-07
549.999  8565000000.0  204700000000.0  4.2400000000000004e-07  1.5600000000000002e-07  1.13e-07
599.999  8946000000.0  212600000000.00003  4.42e-07  1.6200000000000002e-07  1.1800000000000001e-07
649.999  9311000000.0  219899999999.99997  4.6000000000000004e-07  1.6800000000000002e-07  1.22e-07
699.999  9663000000.0  226800000000.0  4.77e-07  1.7400000000000002e-07  1.27e-07
799.999  10330000000.0  239600000000.0  5.1e-07  1.84e-07  1.35e-07
899.999  10960000000.0  251200000000.0  5.420000000000001e-07  1.9400000000000002e-07  1.42e-07
999.999  11550000000.0  261900000000.0  5.72e-07  2.03e-07  1.49e-07
1100.0  12110000000.0  271600000000.0  6.01e-07  2.1200000000000002e-07  1.5600000000000002e-07
1200.0  12649999999.999998  280700000000.0  6.29e-07  2.21e-07  1.6300000000000002e-07
1300.0  13170000000.0  289200000000.0  6.57e-07  2.2900000000000003e-07  1.7000000000000001e-07
1400.0  13670000000.0  297100000000.0  6.830000000000001e-07  2.3700000000000002e-07  1.7600000000000001e-07
1500.0  14150000000.0  304500000000.0  7.09e-07  2.4500000000000004e-07  1.8200000000000002e-07
1600.0  14610000000.0  311500000000.0  7.350000000000001e-07  2.5200000000000003e-07  1.8800000000000002e-07
1700.0  15060000000.0  318100000000.0  7.6e-07  2.5900000000000003e-07  1.9400000000000002e-07
1800.0  15500000000.0  324400000000.0  7.84e-07  2.67e-07  1.9900000000000002e-07
2000.0  16330000000.0  336000000000.0  8.32e-07  2.8e-07  2.1e-07
2250.0  17320000000.0  349099999999.99994  8.890000000000001e-07  2.97e-07  2.2300000000000002e-07
2500.0  18260000000.0  360900000000.00006  9.450000000000001e-07  3.1200000000000004e-07  2.3600000000000002e-07
2750.0  19150000000.0  371599999999.99994  9.99e-07  3.27e-07  2.48e-07
3000.0  20000000000.0  381300000000.0  1.051e-06  3.42e-07  2.6e-07
3250.0  20820000000.0  390200000000.00006  1.103e-06  3.56e-07  2.72e-07
3500.0  21610000000.0  398400000000.00006  1.153e-06  3.6900000000000004e-07  2.8300000000000003e-07
3750.0  22370000000.0  406000000000.0  1.202e-06  3.82e-07  2.94e-07
4000.0  23100000000.0  413100000000.0  1.2510000000000002e-06  3.9500000000000003e-07  3.04e-07
4500.0  24500000000.0  425900000000.00006  1.3460000000000001e-06  4.2e-07  3.25e-07
5000.0  25830000000.0  437100000000.0  1.438e-06  4.4500000000000003e-07  3.4500000000000003e-07
5500.0  27090000000.0  447100000000.0  1.528e-06  4.68e-07  3.6400000000000003e-07
6000.0  28290000000.0  456000000000.0  1.6170000000000001e-06  4.91e-07  3.8300000000000003e-07
6500.0  29450000000.0  464000000000.0  1.7040000000000001e-06  5.13e-07  4.01e-07
7000.0  30560000000.0  471200000000.0  1.7890000000000002e-06  5.350000000000001e-07  4.1900000000000003e-07
8000.0  32670000000.0  483900000000.0  1.957e-06  5.77e-07  4.54e-07
9000.0  34650000000.0  494400000000.0  2.121e-06  6.170000000000001e-07  4.88e-07
10000.0  36520000000.0  503400000000.00006  2.2820000000000003e-06  6.57e-07  5.210000000000001e-07
11000.0  38310000000.0  511000000000.0  2.4400000000000004e-06  6.95e-07  5.53e-07
12000.0  40010000000.0  517600000000.0  2.5960000000000002e-06  7.33e-07  5.84e-07
13000.0  41640000000.0  523300000000.0  2.7500000000000004e-06  7.7e-07  6.140000000000001e-07
14000.0  43210000000.0  528200000000.0  2.9020000000000003e-06  8.060000000000001e-07  6.44e-07
15000.0  44730000000.0  532500000000.0  3.0540000000000003e-06  8.42e-07  6.74e-07
16000.0  46200000000.0  536200000000.0  3.204e-06  8.77e-07  7.030000000000001e-07
17000.0  47619999999.99999  539400000000.0  3.3530000000000003e-06  9.12e-07  7.32e-07
18000.0  49000000000.0  542200000000.0  3.501e-06  9.46e-07  7.6e-07
20000.0  51650000000.0  546800000000.0  3.795e-06  1.015e-06  8.16e-07
22500.0  54780000000.0  550900000000.0  4.159e-06  1.0980000000000001e-06  8.84e-07
25000.0  57750000000.0  553600000000.0  4.52e-06  1.1800000000000001e-06  9.510000000000001e-07
27500.0  60570000000.00001  555200000000.0  4.879e-06  1.261e-06  1.017e-06
30000.0  63260000000.0  556000000000.0  5.237e-06  1.34e-06  1.0810000000000001e-06
32500.0  65840000000.0  556100000000.0  5.594e-06  1.419e-06  1.145e-06
35000.0  68330000000.0  555700000000.0  5.950000000000001e-06  1.497e-06  1.209e-06
37500.0  70730000000.0  554900000000.0  6.305000000000001e-06  1.574e-06  1.271e-06
40000.0  73050000000.0  553600000000.0  6.661e-06  1.6510000000000002e-06  1.333e-06
45000.0  77480000000.0  550400000000.0  7.372000000000001e-06  1.8030000000000001e-06  1.4560000000000001e-06
50000.0  81670000000.0  546300000000.0  8.085e-06  1.9540000000000003e-06  1.577e-06
55000.0  85650000000.0  541700000000.0  8.8e-06  2.103e-06  1.697e-06
60000.0  89460000000.0  536700000000.0  9.517e-06  2.251e-06  1.816e-06
65000.0  93110000000.0  531400000000.0  1.02e-05  2.397e-06  1.935e-06
70000.0  96630000000.0  526000000000.0  1.1000000000000001e-05  2.543e-06  2.052e-06
80000.0  103300000000.0  515100000000.0  1.2400000000000002e-05  2.8340000000000003e-06  2.2870000000000003e-06
90000.0  109600000000.00002  504099999999.99994  1.39e-05  3.123e-06  2.52e-06
100000.0  115500000000.0  493300000000.0  1.54e-05  3.4080000000000002e-06  2.752e-06
110000.0  121199999999.99998  482800000000.0  1.69e-05  3.6910000000000003e-06  2.984e-06
120000.0  132899999999.99998  472600000000.0  1.8400000000000003e-05  3.9690000000000005e-06  3.216e-06
130000.0  141600000000.0  462800000000.0  1.9900000000000003e-05  4.242e-06  3.446e-06
140000.0  148500000000.0  453400000000.00006  2.1400000000000002e-05  4.5110000000000005e-06  3.676e-06
150000.0  154200000000.0  444400000000.0  2.3e-05  4.7760000000000005e-06  3.905e-06
160000.0  159100000000.0  435700000000.0  2.4500000000000003e-05  5.04e-06  4.1340000000000006e-06
170000.0  163500000000.0  427400000000.0  2.61e-05  5.302e-06  4.362e-06
180000.0  167600000000.00003  419500000000.0  2.7700000000000002e-05  5.562e-06  4.59e-06
200000.0  175200000000.0  404500000000.0  3.08e-05  6.0840000000000005e-06  5.047e-06
225000.0  184500000000.0  387500000000.0  3.490000000000001e-05  6.730000000000001e-06  5.619000000000001e-06
250000.0  193700000000.0  372000000000.0  3.9e-05  7.3630000000000005e-06  6.192e-06
275000.0  203000000000.0  357800000000.0  4.31e-05  7.984e-06  6.7650000000000005e-06
300000.0  212399999999.99997  344900000000.0  4.730000000000001e-05  8.592e-06  7.337e-06
325000.0  221900000000.0  333100000000.0  5.1500000000000005e-05  9.187e-06  7.907e-06
350000.0  231400000000.0  322100000000.0  5.580000000000001e-05  9.767e-06  8.475000000000001e-06
375000.0  240900000000.0  312000000000.0  6.000000000000001e-05  1.0300000000000001e-05  9.04e-06
400000.0  250300000000.0  302600000000.0  6.43e-05  1.0900000000000002e-05  9.602e-06
450000.0  268700000000.0  285700000000.0  7.280000000000001e-05  1.2e-05  1.0700000000000001e-05
500000.0  286700000000.0  270799999999.99997  8.130000000000001e-05  1.3000000000000001e-05  1.18e-05
550000.0  303900000000.0  257700000000.0  8.980000000000001e-05  1.4e-05  1.2900000000000002e-05
600000.0  320500000000.0  246000000000.0  9.820000000000002e-05  1.4900000000000001e-05  1.39e-05
650000.0  336500000000.0  235400000000.0  0.00010660000000000002  1.58e-05  1.4900000000000001e-05
700000.0  351800000000.0  225900000000.0  0.00011490000000000001  1.66e-05  1.5900000000000004e-05
800000.0  380700000000.0  209300000000.0  0.00013130000000000002  1.83e-05  1.7800000000000002e-05
900000.0  407600000000.0  195300000000.0  0.0001474  1.97e-05  1.9600000000000002e-05
1000000.0  432900000000.0  183299999999.99997  0.0001632  2.11e-05  2.13e-05
1100000.0  457000000000.0  172900000000.0  0.00017870000000000003  2.2300000000000003e-05  2.29e-05
1200000.0  480100000000.0  163800000000.0  0.00019390000000000002  2.3500000000000002e-05  2.44e-05
1300000.0  502299999999.99994  155700000000.0  0.0002088  2.46e-05  2.59e-05
1400000.0  523900000000.0  148500000000.0  0.0002234  2.55e-05  2.7300000000000003e-05
1500000.0  545100000000.0  142000000000.0  0.0002377  2.65e-05  2.86e-05
1600000.0  565900000000.0  136100000000.0  0.00025170000000000005  2.7300000000000003e-05  2.9800000000000003e-05
1700000.0  586500000000.0  130800000000.0  0.0002654  2.8100000000000002e-05  3.1e-05
1800000.0  606900000000.0  125900000000.0  0.0002789  2.8900000000000005e-05  3.2200000000000003e-05
2000000.0  647400000000.0  117200000000.0  0.0003049  3.0400000000000004e-05  3.430000000000001e-05
2250000.0  698100000000.0  108200000000.0  0.00033610000000000004  3.2000000000000005e-05  3.6700000000000004e-05
2500000.0  749100000000.0  100600000000.0  0.00036570000000000005  3.35e-05  3.8900000000000004e-05
2750000.0  800699999999.9999  94060000000.0  0.00039390000000000003  3.47e-05  4.08e-05
3000000.0  853199999999.9999  88440000000.0  0.00042070000000000003  3.58e-05  4.26e-05
3250000.0  906600000000.0  83520000000.0  0.00044610000000000006  3.680000000000001e-05  4.4200000000000004e-05
3500000.0  960800000000.0  79190000000.0  0.00047040000000000005  3.76e-05  4.56e-05
3750000.0  1016000000000.0  75320000000.0  0.0004936000000000001  3.8400000000000005e-05  4.690000000000001e-05
4000000.0  1071000000000.0  71860000000.0  0.0005157  3.91e-05  4.81e-05
4500000.0  1185000000000.0  65890000000.00001  0.0005570000000000001  4.0400000000000006e-05  5.02e-05
5000000.0  1300000000000.0  60940000000.0  0.0005949000000000001  4.1500000000000006e-05  5.2000000000000004e-05
5500000.0  1415000000000.0  56740000000.0  0.0006299000000000001  4.240000000000001e-05  5.360000000000001e-05
6000000.0  1531000000000.0  53140000000.0  0.0006624000000000001  4.3200000000000007e-05  5.4900000000000006e-05
6500000.0  1645000000000.0  50000000000.0  0.0006926000000000001  4.38e-05  5.6e-05
7000000.0  1758000000000.0  47260000000.0  0.000721  4.440000000000001e-05  5.7e-05
8000000.0  1975000000000.0  42650000000.0  0.000773  4.56e-05  5.8700000000000004e-05
9000000.0  2179000000000.0  38930000000.0  0.0008200000000000001  4.6500000000000005e-05  6.0100000000000004e-05
10000000.0  2366000000000.0  35860000000.0  0.0008631000000000001  4.730000000000001e-05  6.120000000000001e-05
11000000.0  2536000000000.0  33270000000.0  0.0009032  4.7900000000000006e-05  6.220000000000001e-05
12000000.0  2689000000000.0  31070000000.000004  0.0009409000000000002  4.85e-05  6.3e-05
13000000.0  2826000000000.0  29160000000.0  0.0009766  4.9000000000000005e-05  6.37e-05
14000000.0  2947000000000.0  27490000000.0  0.0010108  4.940000000000001e-05  6.43e-05
15000000.0  3055000000000.0  26010000000.0  0.0010437  4.980000000000001e-05  6.49e-05
16000000.0  3151000000000.0  24700000000.000004  0.0010756000000000001  5.0100000000000005e-05  6.54e-05
17000000.0  3236000000000.0  23530000000.000004  0.0011066000000000001  5.0400000000000005e-05  6.59e-05
18000000.0  3311000000000.0  22470000000.0  0.0011369000000000002  5.0700000000000006e-05  6.63e-05
20000000.0  3439000000000.0  20630000000.0  0.0011957  5.160000000000001e-05  6.71e-05
22500000.0  3566000000000.0  18750000000.0  0.0012665000000000003  5.280000000000001e-05  6.8e-05
25000000.0  3665000000000.0  17200000000.0  0.0013352000000000001  5.39e-05  6.87e-05
27500000.0  3744000000000.0  15910000000.0  0.0014023  5.4900000000000006e-05  6.94e-05
30000000.0  3809000000000.0  14810000000.0  0.0014682  5.580000000000001e-05  7.000000000000001e-05
32500000.0  3862000000000.0  13859999999.999998  0.0015330000000000003  5.67e-05  7.05e-05
35000000.0  3905000000000.0  13040000000.0  0.0015971000000000002  5.7600000000000004e-05  7.1e-05
37500000.0  3940000000000.0  12310000000.0  0.0016606000000000001  5.84e-05  7.15e-05
40000000.0  3969000000000.0  11670000000.0  0.0017236000000000003  5.910000000000001e-05  7.2e-05
45000000.0  4008000000000.0  10580000000.0  0.0018485  6.190000000000001e-05  7.280000000000001e-05
50000000.0  4030000000000.0  9682000000.0  0.0019725000000000003  6.450000000000001e-05  7.360000000000001e-05
55000000.0  4037000000000.0  8937000000.0  0.0020962000000000003  6.7e-05  7.43e-05
60000000.0  4034000000000.0  8305000000.0  0.0022197000000000002  6.94e-05  7.49e-05
65000000.0  4022000000000.0  7762000000.0  0.0023436000000000004  7.170000000000001e-05  7.560000000000001e-05
70000000.0  4003000000000.0  7290000000.0  0.0024679000000000003  7.390000000000001e-05  7.620000000000001e-05
80000000.0  3953000000000.0  6509000000.0  0.0027188000000000004  8.220000000000002e-05  7.730000000000001e-05
90000000.0  3890000000000.0  5887000000.0  0.0029734  8.99e-05  7.85e-05
100000000.0  3822000000000.0  5380000000.0  0.0032323000000000005  9.720000000000002e-05  7.950000000000001e-05
110000000.0  3751000000000.0  4959000000.0  0.0034961000000000002  0.0001043  8.060000000000001e-05
120000000.0  3720000000000.0  4602000000.0  0.0037634  0.0001111  8.16e-05
130000000.0  3661000000000.0  4295000000.0  0.004034  0.00011760000000000001  8.26e-05
140000000.0  3603000000000.0  4030000000.0000005  0.004309  0.000124  8.36e-05
150000000.0  3551000000000.0  3797000000.0  0.004588200000000001  0.0001303  8.470000000000001e-05
160000000.0  3501000000000.0  3590999999.9999995  0.0048715  0.0001364  8.570000000000001e-05
170000000.0  3451000000000.0  3407000000.0  0.0051589  0.00014250000000000002  8.67e-05
180000000.0  3403000000000.0  3243000000.0  0.0054504  0.0001484  8.77e-05
200000000.0  3311000000000.0  2959000000.0  0.0060458000000000005  0.0001708  8.980000000000001e-05
225000000.0  3201000000000.0  2671000000.0  0.006813200000000001  0.00020260000000000005  9.240000000000001e-05
250000000.0  3098000000000.0  2436000000.0  0.0076065  0.00023180000000000002  9.510000000000001e-05
275000000.0  3000000000000.0  2242000000.0  0.008426000000000001  0.0002594  9.78e-05
300000000.0  2908000000000.0  2077000000.0  0.009271900000000001  0.0002858  0.00010070000000000001
325000000.0  2820000000000.0  1937000000.0  0.0101  0.00031150000000000004  0.0001036
350000000.0  2736000000000.0  1815000000.0  0.011000000000000001  0.0003366  0.00010660000000000002
