energy[eV]  elec[eV/m]    nuclear[eV/m]  range[m]   longitudinal[m]    lateral[m]
1.2  615400000.0  5729000000.0  2.1000000000000003e-08  1.3e-08  9.000000000000001e-09
1.3  640500000.0  6022000000.0  2.2000000000000002e-08  1.4000000000000001e-08  1e-08
1.4  664700000.0  6304999999.999999  2.3e-08  1.4000000000000001e-08  1e-08
1.5  688000000.0  6580000000.0  2.4000000000000003e-08  1.5000000000000002e-08  1.1000000000000001e-08
1.6  710600000.0  6846000000.0  2.4000000000000003e-08  1.5000000000000002e-08  1.1000000000000001e-08
1.7  732400000.0  7106000000.0  2.5000000000000002e-08  1.6e-08  1.1000000000000001e-08
1.8  753700000.0000001  7358000000.0  2.6e-08  1.6e-08  1.2000000000000002e-08
2  794400000.0  7846000000.0  2.7e-08  1.7e-08  1.2000000000000002e-08
2.25  842600000.0  8425000000.0  2.8000000000000003e-08  1.8000000000000002e-08  1.3e-08
2.49999  888200000.0  8977000000.0  3.0000000000000004e-08  1.9e-08  1.4000000000000001e-08
2.74999  931600000.0000001  9503000000.0  3.1e-08  2e-08  1.4000000000000001e-08
2.99999  973000000.0  10009999999.999998  3.2e-08  2.1000000000000003e-08  1.5000000000000002e-08
3.24999  1013000000.0  10490000000.0  3.3000000000000004e-08  2.2000000000000002e-08  1.6e-08
3.49999  1051000000.0  10960000000.0  3.5e-08  2.2000000000000002e-08  1.6e-08
3.74999  1088000000.0  11410000000.0  3.6000000000000005e-08  2.3e-08  1.7e-08
3.99999  1123000000.0  11850000000.0  3.7e-08  2.4000000000000003e-08  1.7e-08
4.49999  1192000000.0  12690000000.0  3.8e-08  2.5000000000000002e-08  1.8000000000000002e-08
4.99999  1256000000.0  13480000000.0  4e-08  2.6e-08  1.9e-08
5.49999  1317000000.0  14240000000.0  4.2000000000000006e-08  2.8000000000000003e-08  2e-08
5.99999  1376000000.0  14960000000.0  4.3e-08  2.9e-08  2.1000000000000003e-08
6.49999  1432000000.0  15650000000.0  4.5000000000000006e-08  3.0000000000000004e-08  2.2000000000000002e-08
6.99999  1486000000.0  16319999999.999998  4.6e-08  3.1e-08  2.2000000000000002e-08
7.99999  1589000000.0000002  17580000000.0  4.9e-08  3.3000000000000004e-08  2.4000000000000003e-08
8.99999  1685000000.0  18750000000.0  5.2e-08  3.5e-08  2.5000000000000002e-08
9.99999  1776000000.0  19860000000.0  5.4e-08  3.6000000000000005e-08  2.6e-08
10.9999  1863000000.0  20920000000.0  5.7e-08  3.8e-08  2.7e-08
11.9999  1946000000.0  21920000000.0  5.9000000000000006e-08  4e-08  2.9e-08
12.9999  2025000000.0000002  22870000000.0  6.1e-08  4.1e-08  3.0000000000000004e-08
13.9999  2102000000.0  23790000000.0  6.300000000000001e-08  4.2000000000000006e-08  3.1e-08
14.9999  2176000000.0  24670000000.0  6.5e-08  4.4000000000000004e-08  3.2e-08
15.9999  2247000000.0  25510000000.0  6.7e-08  4.5000000000000006e-08  3.2e-08
16.9999  2316000000.0  26330000000.0  6.900000000000001e-08  4.6e-08  3.3000000000000004e-08
17.9999  2383000000.0  27120000000.0  7e-08  4.8000000000000006e-08  3.4e-08
19.9999  2512000000.0  28620000000.0  7.4e-08  5.0000000000000004e-08  3.6000000000000005e-08
22.4999  2665000000.0  30370000000.0  7.800000000000001e-08  5.3000000000000005e-08  3.8e-08
24.9999  2809000000.0  32020000000.0  8.2e-08  5.5e-08  3.9000000000000005e-08
27.4999  2945999999.9999995  33560000000.0  8.6e-08  5.8e-08  4.1e-08
29.9999  3076999999.9999995  35010000000.0  8.9e-08  6.000000000000001e-08  4.3e-08
32.4999  3202000000.0  36390000000.0  9.300000000000001e-08  6.2e-08  4.4000000000000004e-08
34.9999  3323000000.0  37710000000.0  9.600000000000001e-08  6.4e-08  4.6e-08
37.4999  3439999999.9999995  38960000000.0  9.9e-08  6.600000000000001e-08  4.7000000000000004e-08
39.9999  3553000000.0  40160000000.0  1.0300000000000001e-07  6.8e-08  4.9e-08
44.9999  3768000000.0  42420000000.0  1.0900000000000001e-07  7.200000000000001e-08  5.1e-08
49.9999  3972000000.0  44510000000.0  1.14e-07  7.6e-08  5.4e-08
54.9999  4166000000.0000005  46460000000.0  1.2000000000000002e-07  7.9e-08  5.6000000000000005e-08
59.9999  4351000000.0  48290000000.0  1.2500000000000002e-07  8.2e-08  5.9000000000000006e-08
64.9999  4529000000.0  50010000000.0  1.31e-07  8.500000000000001e-08  6.1e-08
69.9999  4700000000.0  51640000000.0  1.36e-07  8.800000000000001e-08  6.300000000000001e-08
79.9999  5024000000.0  54660000000.0  1.46e-07  9.400000000000001e-08  6.7e-08
89.9999  5329000000.0  57400000000.0  1.55e-07  9.9e-08  7.1e-08
99.9999  5617000000.0  59920000000.0  1.64e-07  1.04e-07  7.500000000000001e-08
110  5891999999.999999  62250000000.0  1.73e-07  1.0900000000000001e-07  7.800000000000001e-08
120  6153999999.999999  64410000000.0  1.8100000000000002e-07  1.14e-07  8.2e-08
130  6405000000.0  66430000000.0  1.89e-07  1.1800000000000001e-07  8.500000000000001e-08
139.999  6647000000.0  68330000000.0  1.97e-07  1.23e-07  8.800000000000001e-08
149.999  6879999999.999999  70110000000.0  2.0500000000000002e-07  1.27e-07  9.100000000000001e-08
159.999  7106000000.0  71800000000.0  2.1300000000000001e-07  1.31e-07  9.400000000000001e-08
169.999  7324000000.000001  73400000000.0  2.2e-07  1.35e-07  9.700000000000001e-08
179.999  7537000000.0  74920000000.0  2.27e-07  1.3900000000000001e-07  1.0000000000000001e-07
199.999  7944000000.0  77740000000.0  2.42e-07  1.47e-07  1.05e-07
224.999  8426000000.0  80930000000.0  2.5900000000000003e-07  1.5600000000000002e-07  1.1200000000000001e-07
249.999  8882000000.0  83810000000.0  2.7600000000000004e-07  1.64e-07  1.1900000000000001e-07
274.999  9316000000.0  86430000000.0  2.92e-07  1.73e-07  1.2500000000000002e-07
299.999  9730000000.0  88829999999.99998  3.08e-07  1.8100000000000002e-07  1.31e-07
324.999  10129999999.999998  91030000000.0  3.23e-07  1.89e-07  1.36e-07
349.999  10510000000.0  93070000000.0  3.39e-07  1.96e-07  1.42e-07
374.999  10880000000.0  94970000000.0  3.54e-07  2.04e-07  1.48e-07
399.999  11230000000.0  96740000000.0  3.68e-07  2.1100000000000002e-07  1.53e-07
449.999  11920000000.0  99949999999.99998  3.97e-07  2.2500000000000002e-07  1.6300000000000002e-07
499.999  12560000000.0  102800000000.0  4.25e-07  2.39e-07  1.7400000000000002e-07
549.999  13170000000.0  105300000000.0  4.5300000000000005e-07  2.5200000000000003e-07  1.83e-07
599.999  13759999999.999998  107600000000.0  4.800000000000001e-07  2.65e-07  1.9300000000000002e-07
649.999  14320000000.0  109700000000.0  5.06e-07  2.77e-07  2.02e-07
699.999  14860000000.0  111600000000.0  5.32e-07  2.89e-07  2.1100000000000002e-07
799.999  15890000000.0  114900000000.0  5.830000000000001e-07  3.13e-07  2.2900000000000003e-07
899.999  16850000000.0  117700000000.0  6.33e-07  3.3600000000000004e-07  2.46e-07
999.999  17760000000.0  120100000000.0  6.82e-07  3.58e-07  2.62e-07
1100.0  18630000000.0  122200000000.0  7.3e-07  3.8e-07  2.7800000000000003e-07
1200.0  19460000000.0  124000000000.0  7.78e-07  4.01e-07  2.94e-07
1300.0  20250000000.0  125600000000.0  8.25e-07  4.2200000000000005e-07  3.0900000000000003e-07
1400.0  21020000000.0  127000000000.0  8.71e-07  4.4300000000000004e-07  3.2400000000000004e-07
1500.0  21760000000.0  128300000000.0  9.170000000000001e-07  4.63e-07  3.39e-07
1600.0  22470000000.0  129400000000.0  9.630000000000001e-07  4.830000000000001e-07  3.53e-07
1700.0  23160000000.0  130399999999.99998  1.0080000000000001e-06  5.03e-07  3.6700000000000004e-07
1800.0  23830000000.0  131199999999.99998  1.0530000000000001e-06  5.22e-07  3.82e-07
2000.0  25120000000.0  132700000000.0  1.142e-06  5.6e-07  4.09e-07
2250.0  26650000000.0  134100000000.0  1.252e-06  6.070000000000001e-07  4.4300000000000004e-07
2500.0  28090000000.0  135200000000.0  1.3610000000000002e-06  6.53e-07  4.7600000000000003e-07
2750.0  29460000000.0  136000000000.0  1.4700000000000001e-06  6.98e-07  5.08e-07
3000.0  30770000000.0  136500000000.0  1.577e-06  7.420000000000001e-07  5.4e-07
3250.0  32020000000.0  136900000000.0  1.6850000000000002e-06  7.860000000000001e-07  5.71e-07
3500.0  33230000000.0  137100000000.00002  1.791e-06  8.29e-07  6.01e-07
3750.0  34400000000.0  137200000000.0  1.898e-06  8.71e-07  6.310000000000001e-07
4000.0  35530000000.0  137200000000.0  2.004e-06  9.140000000000001e-07  6.61e-07
4500.0  37680000000.0  136900000000.0  2.216e-06  9.970000000000002e-07  7.200000000000001e-07
5000.0  39720000000.0  136400000000.0  2.4270000000000002e-06  1.0790000000000002e-06  7.78e-07
5500.0  41660000000.0  135700000000.0  2.639e-06  1.159e-06  8.35e-07
6000.0  43510000000.0  134800000000.0  2.8500000000000002e-06  1.2390000000000001e-06  8.91e-07
6500.0  45290000000.0  133900000000.0  3.062e-06  1.317e-06  9.46e-07
7000.0  47000000000.0  132899999999.99998  3.2730000000000003e-06  1.395e-06  1.001e-06
8000.0  50240000000.0  130800000000.0  3.6980000000000004e-06  1.548e-06  1.109e-06
9000.0  53290000000.0  128500000000.0  4.124000000000001e-06  1.698e-06  1.216e-06
10000.0  56170000000.0  126300000000.00002  4.551e-06  1.8460000000000002e-06  1.3210000000000001e-06
11000.0  58920000000.0  124100000000.0  4.981e-06  1.991e-06  1.4250000000000001e-06
12000.0  61540000000.0  121900000000.0  5.412e-06  2.133e-06  1.529e-06
13000.0  64050000000.0  119700000000.0  5.844e-06  2.274e-06  1.6310000000000001e-06
14000.0  66470000000.0  117600000000.0  6.278000000000001e-06  2.412e-06  1.7330000000000002e-06
15000.0  68800000000.0  115600000000.0  6.7140000000000004e-06  2.548e-06  1.8340000000000001e-06
16000.0  71060000000.0  113600000000.0  7.151000000000001e-06  2.683e-06  1.935e-06
17000.0  73240000000.0  111700000000.0  7.5890000000000005e-06  2.815e-06  2.035e-06
18000.0  75370000000.0  109800000000.0  8.028e-06  2.9460000000000003e-06  2.1350000000000003e-06
20000.0  79440000000.0  106400000000.0  8.910000000000001e-06  3.2010000000000004e-06  2.334e-06
22500.0  84260000000.0  102300000000.0  1e-05  3.5110000000000004e-06  2.579e-06
25000.0  88820000000.0  98590000000.0  1.1100000000000002e-05  3.8110000000000004e-06  2.8220000000000003e-06
27500.0  93160000000.0  95170000000.0  1.22e-05  4.102e-06  3.062e-06
30000.0  97300000000.0  92010000000.0  1.3400000000000002e-05  4.383e-06  3.3e-06
32500.0  101199999999.99998  89090000000.0  1.45e-05  4.655e-06  3.535e-06
35000.0  104500000000.0  86380000000.0  1.5600000000000003e-05  4.92e-06  3.766e-06
37500.0  107400000000.0  83850000000.0  1.67e-05  5.178e-06  3.996e-06
40000.0  110200000000.0  81489999999.99998  1.7800000000000002e-05  5.431e-06  4.222e-06
45000.0  115200000000.0  77220000000.0  2.01e-05  5.922e-06  4.6690000000000005e-06
50000.0  120100000000.0  73440000000.0  2.2300000000000003e-05  6.392000000000001e-06  5.106e-06
55000.0  124800000000.0  70070000000.0  2.46e-05  6.841e-06  5.536e-06
60000.0  129400000000.0  67050000000.0  2.6800000000000004e-05  7.272000000000001e-06  5.956e-06
65000.0  134000000000.0  64320000000.00001  2.9100000000000003e-05  7.683e-06  6.369e-06
70000.0  138600000000.0  61840000000.0  3.13e-05  8.077e-06  6.7720000000000006e-06
80000.0  147400000000.0  57490000000.0  3.57e-05  8.822000000000001e-06  7.554000000000001e-06
90000.0  155900000000.0  53800000000.0  4.01e-05  9.506e-06  8.301e-06
100000.0  164000000000.0  50630000000.0  4.440000000000001e-05  1.0100000000000002e-05  9.014e-06
110000.0  171600000000.0  47859999999.99999  4.860000000000001e-05  1.0700000000000001e-05  9.694e-06
120000.0  178800000000.0  45410000000.0  5.27e-05  1.13e-05  1.0300000000000001e-05
130000.0  185600000000.0  43250000000.0  5.6800000000000005e-05  1.18e-05  1.1000000000000001e-05
140000.0  192000000000.0  41300000000.0  6.080000000000001e-05  1.22e-05  1.16e-05
150000.0  198000000000.0  39550000000.0  6.47e-05  1.27e-05  1.2100000000000001e-05
160000.0  203700000000.0  37960000000.0  6.860000000000001e-05  1.3100000000000002e-05  1.27e-05
170000.0  209100000000.0  36510000000.0  7.240000000000001e-05  1.3500000000000001e-05  1.3200000000000002e-05
180000.0  214200000000.00003  35190000000.0  7.620000000000001e-05  1.39e-05  1.3700000000000003e-05
200000.0  223800000000.0  32839999999.999996  8.37e-05  1.46e-05  1.4700000000000002e-05
225000.0  234600000000.0  30360000000.0  9.27e-05  1.54e-05  1.58e-05
250000.0  244500000000.0  28270000000.0  0.0001016  1.62e-05  1.6800000000000002e-05
275000.0  253600000000.0  26480000000.0  0.00011020000000000001  1.6800000000000002e-05  1.7800000000000002e-05
300000.0  262200000000.0  24930000000.0  0.00011860000000000001  1.7400000000000003e-05  1.8700000000000004e-05
325000.0  270300000000.0  23570000000.000004  0.0001269  1.8e-05  1.95e-05
350000.0  278100000000.0  22370000000.0  0.000135  1.8500000000000002e-05  2.03e-05
375000.0  285600000000.0  21300000000.0  0.000143  1.9e-05  2.11e-05
400000.0  292900000000.0  20339999999.999996  0.0001507  1.95e-05  2.1800000000000005e-05
450000.0  307200000000.0  18680000000.0  0.00016590000000000002  2.04e-05  2.32e-05
500000.0  321100000000.0  17290000000.0  0.0001806  2.11e-05  2.44e-05
550000.0  334900000000.0  16120000000.000002  0.00019470000000000002  2.1800000000000005e-05  2.55e-05
600000.0  348600000000.0  15109999999.999998  0.00020840000000000002  2.2400000000000002e-05  2.65e-05
650000.0  362400000000.0  14230000000.0  0.00022160000000000002  2.3e-05  2.75e-05
700000.0  376400000000.0  13460000000.0  0.00023440000000000003  2.3500000000000002e-05  2.8300000000000003e-05
800000.0  404700000000.0  12160000000.0  0.00025870000000000005  2.4500000000000003e-05  2.9900000000000005e-05
900000.0  433500000000.0  11120000000.000002  0.0002815  2.5300000000000002e-05  3.13e-05
1000000.0  462900000000.0  10250000000.0  0.00030300000000000005  2.6000000000000002e-05  3.2500000000000004e-05
1100000.0  492800000000.0  9519000000.0  0.0003233  2.6600000000000003e-05  3.35e-05
1200000.0  522900000000.0  8894000000.0  0.00034240000000000003  2.71e-05  3.44e-05
1300000.0  553200000000.0  8353000000.0  0.0003605  2.76e-05  3.5300000000000004e-05
1400000.0  583400000000.0  7879000000.0  0.0003776  2.8e-05  3.6e-05
1500000.0  613500000000.0  7461000000.0  0.00039400000000000004  2.8300000000000003e-05  3.6700000000000004e-05
1600000.0  643300000000.0  7089000000.0  0.00040960000000000004  2.86e-05  3.7300000000000005e-05
1700000.0  672600000000.0  6755000000.0  0.00042450000000000007  2.8900000000000005e-05  3.7900000000000006e-05
1800000.0  701400000000.0  6453000000.0  0.00043880000000000004  2.9100000000000003e-05  3.8400000000000005e-05
2000000.0  756800000000.0001  5931000000.0  0.00046580000000000005  2.9700000000000004e-05  3.9300000000000007e-05
2250000.0  821400000000.0  5393000000.0  0.0004971000000000001  3.03e-05  4.02e-05
2500000.0  879900000000.0  4952000000.0  0.0005262  3.08e-05  4.1e-05
2750000.0  931900000000.0  4583000000.0  0.0005535000000000001  3.13e-05  4.1700000000000004e-05
3000000.0  977400000000.0  4268000000.0  0.0005795  3.1700000000000005e-05  4.2300000000000005e-05
3250000.0  1017000000000.0  3997000000.0  0.0006043  3.2000000000000005e-05  4.2900000000000006e-05
3500000.0  1050000000000.0  3761000000.0  0.0006284000000000001  3.2300000000000006e-05  4.33e-05
3750000.0  1078000000000.0  3553000000.0  0.0006517000000000001  3.26e-05  4.38e-05
4000000.0  1101000000000.0  3368000000.0  0.0006745000000000001  3.29e-05  4.4200000000000004e-05
4500000.0  1135000000000.0  3055000000.0  0.0007190000000000001  3.3700000000000006e-05  4.490000000000001e-05
5000000.0  1156000000000.0  2798000000.0  0.0007624  3.44e-05  4.55e-05
5500000.0  1168000000000.0  2584000000.0  0.0008053000000000001  3.51e-05  4.610000000000001e-05
6000000.0  1173000000000.0  2403000000.0  0.0008478000000000001  3.58e-05  4.6700000000000003e-05
6500000.0  1174000000000.0  2246000000.0  0.0008903000000000001  3.6400000000000004e-05  4.72e-05
7000000.0  1171000000000.0  2111000000.0  0.0009328000000000001  3.7000000000000005e-05  4.7600000000000005e-05
8000000.0  1159000000000.0  1885000000.0  0.0010184  3.91e-05  4.85e-05
9000000.0  1142000000000.0  1706000000.0  0.0011051000000000001  4.1200000000000005e-05  4.93e-05
10000000.0  1123000000000.0  1560000000.0  0.0011932  4.3200000000000007e-05  5.0100000000000005e-05
11000000.0  1103000000000.0  1438000000.0  0.0012828000000000002  4.52e-05  5.0900000000000004e-05
12000000.0  1083000000000.0  1335000000.0  0.0013742  4.72e-05  5.160000000000001e-05
13000000.0  1062000000000.0  1247000000.0  0.0014673  4.92e-05  5.230000000000001e-05
14000000.0  1041000000000.0  1170000000.0  0.0015622000000000001  5.110000000000001e-05  5.31e-05
15000000.0  1021000000000.0  1103000000.0  0.0016591000000000002  5.31e-05  5.380000000000001e-05
16000000.0  1001000000000.0  1043000000.0  0.0017579  5.5100000000000004e-05  5.45e-05
17000000.0  981300000000.0  990000000.0  0.0018586000000000002  5.7e-05  5.52e-05
18000000.0  962300000000.0  942300000.0  0.0019614  5.900000000000001e-05  5.5900000000000004e-05
20000000.0  925699999999.9999  860300000.0  0.0021731000000000003  6.64e-05  5.730000000000001e-05
22500000.0  883100000000.0  776800000.0  0.0024493  7.740000000000001e-05  5.92e-05
25000000.0  843900000000.0  708800000.0  0.0027387  8.78e-05  6.110000000000001e-05
27500000.0  807800000000.0  652400000.0000001  0.0030412000000000004  9.800000000000001e-05  6.31e-05
30000000.0  774599999999.9999  604700000.0  0.003357  0.00010800000000000001  6.51e-05
32500000.0  746000000000.0  563900000.0  0.0036857  0.0001178  6.730000000000001e-05
35000000.0  724200000000.0  528500000.0  0.0040255  0.0001276  6.950000000000001e-05
37500000.0  700100000000.0  497500000.0  0.0043764  0.00013720000000000003  7.18e-05
40000000.0  677400000000.0  470200000.0  0.0047391  0.00014670000000000002  7.42e-05
45000000.0  638900000000.0  423900000.0  0.005498800000000001  0.0001824  7.93e-05
50000000.0  605200000000.0  386400000.0  0.006302500000000001  0.0002154  8.470000000000001e-05
55000000.0  575500000000.0  355300000.0  0.0071493  0.000247  9.04e-05
60000000.0  549000000000.0  329000000.0  0.008038400000000001  0.0002776  9.640000000000001e-05
65000000.0  525000000000.0  306500000.0  0.0089693  0.00030780000000000005  0.0001028
70000000.0  503300000000.0  287100000.0  0.0099415  0.0003376  0.0001094
80000000.0  465200000000.00006  254999999.99999997  0.012  0.00044740000000000003  0.0001236
90000000.0  432700000000.00006  229700000.0  0.014199999999999999  0.0005482000000000001  0.00013890000000000002
100000000.0  404500000000.0  209200000.0  0.0166  0.0006450000000000001  0.0001553
110000000.0  379700000000.0  192100000.0  0.0192  0.0007400000000000001  0.0001727
120000000.0  357700000000.00006  177800000.0  0.0219  0.0008346  0.0001912
130000000.0  338000000000.0  165500000.0  0.0248  0.0009294  0.0002108
140000000.0  320400000000.0  154900000.0  0.0278  0.0010251000000000001  0.00023140000000000001
150000000.0  304400000000.0  145700000.0  0.031000000000000003  0.0011218  0.0002531
160000000.0  289900000000.0  137500000.0  0.0344  0.0012199  0.0002758
170000000.0  276700000000.0  130200000.0  0.0379  0.0013194  0.0002995
180000000.0  264600000000.0  123700000.00000001  0.041600000000000005  0.0014205000000000003  0.0003243
200000000.0  243400000000.0  112500000.0  0.0495  0.0018083000000000003  0.00037710000000000006
225000000.0  221300000000.0  101200000.0  0.0602  0.0023679  0.00044890000000000007
250000000.0  203100000000.0  92090000.0  0.07200000000000001  0.0028996  0.0005271000000000001
275000000.0  188000000000.0  84510000.0  0.0848  0.0034215  0.0006117000000000001
300000000.0  175200000000.0  78130000.0  0.0986  0.0039413  0.0007025000000000001
325000000.0  164300000000.0  72690000.0  0.1133  0.004462600000000001  0.0007994
350000000.0  154900000000.0  67980000.0  0.129  0.004987  0.0009022
375000000.0  146800000000.0  63870000.0  0.1456  0.0055154  0.0010107
400000000.0  139600000000.0  60250000.0  0.1631  0.006048200000000001  0.0011247000000000002
450000000.0  127400000000.0  54160000.0  0.2005  0.0080534  0.0013688
500000000.0  117200000000.0  49220000.0  0.2415  0.0099267  0.0016338000000000001
550000000.0  108500000000.0  45150000.0  0.2858  0.0118  0.0019195
