energy[eV]  elec[eV/m]    nuclear[eV/m]  range[m]   longitudinal[m]    lateral[m]
1.2  430200000.0  6294000000.0  2.4000000000000003e-08  1.2000000000000002e-08  8e-09
1.3  447800000.0  6627999999.999999  2.5000000000000002e-08  1.2000000000000002e-08  9.000000000000001e-09
1.4  464700000.0  6952000000.0  2.6e-08  1.3e-08  9.000000000000001e-09
1.5  480999999.99999994  7268000000.0  2.7e-08  1.3e-08  9.000000000000001e-09
1.6  496800000.0  7574999999.999999  2.8000000000000003e-08  1.4000000000000001e-08  1e-08
1.7  512100000.0  7874000000.0  2.9e-08  1.4000000000000001e-08  1e-08
1.8  526900000.0  8166000000.0  2.9e-08  1.5000000000000002e-08  1e-08
2  555400000.0  8731000000.0  3.1e-08  1.5000000000000002e-08  1.1000000000000001e-08
2.25  589100000.0  9406000000.0  3.2e-08  1.6e-08  1.2000000000000002e-08
2.49999  621000000.0  10049999999.999998  3.4e-08  1.7e-08  1.2000000000000002e-08
2.74999  651299999.9999999  10670000000.0  3.5e-08  1.8000000000000002e-08  1.3e-08
2.99999  680299999.9999999  11259999999.999998  3.7e-08  1.9e-08  1.4000000000000001e-08
3.24999  708100000.0  11830000000.0  3.8e-08  1.9e-08  1.4000000000000001e-08
3.49999  734800000.0  12390000000.000002  3.9000000000000005e-08  2e-08  1.5000000000000002e-08
3.74999  760600000.0  12930000000.0  4e-08  2.1000000000000003e-08  1.5000000000000002e-08
3.99999  785500000.0  13450000000.0  4.2000000000000006e-08  2.1000000000000003e-08  1.6e-08
4.49999  833200000.0  14450000000.0  4.4000000000000004e-08  2.2000000000000002e-08  1.6e-08
4.99999  878200000.0  15410000000.0  4.6e-08  2.3e-08  1.7e-08
5.49999  921100000.0  16319999999.999998  4.8000000000000006e-08  2.5000000000000002e-08  1.8000000000000002e-08
5.99999  962100000.0  17190000000.0  4.9e-08  2.6e-08  1.9e-08
6.49999  1001000000.0  18040000000.0  5.1e-08  2.6e-08  2e-08
6.99999  1039000000.0000001  18850000000.0  5.3000000000000005e-08  2.7e-08  2e-08
7.99999  1111000000.0  20400000000.0  5.6000000000000005e-08  2.9e-08  2.1000000000000003e-08
8.99999  1178000000.0  21850000000.0  5.8e-08  3.1e-08  2.3e-08
9.99999  1242000000.0  23240000000.0  6.1e-08  3.2e-08  2.4000000000000003e-08
10.9999  1303000000.0  24550000000.0  6.300000000000001e-08  3.3000000000000004e-08  2.5000000000000002e-08
11.9999  1361000000.0  25810000000.0  6.600000000000001e-08  3.5e-08  2.6e-08
12.9999  1416000000.0  27020000000.0  6.8e-08  3.6000000000000005e-08  2.7e-08
13.9999  1470000000.0  28180000000.0  7e-08  3.7e-08  2.7e-08
14.9999  1521000000.0000002  29300000000.0  7.200000000000001e-08  3.8e-08  2.8000000000000003e-08
15.9999  1571000000.0  30380000000.0  7.4e-08  4e-08  2.9e-08
16.9999  1619000000.0  31429999999.999996  7.6e-08  4.1e-08  3.0000000000000004e-08
17.9999  1666000000.0  32450000000.0  7.800000000000001e-08  4.2000000000000006e-08  3.0000000000000004e-08
19.9999  1756000000.0  34400000000.0  8.100000000000001e-08  4.4000000000000004e-08  3.2e-08
22.4999  1863000000.0  36690000000.0  8.6e-08  4.6e-08  3.4e-08
24.9999  1964000000.0  38860000000.0  8.9e-08  4.8000000000000006e-08  3.5e-08
27.4999  2060000000.0  40900000000.0  9.300000000000001e-08  5.0000000000000004e-08  3.6000000000000005e-08
29.9999  2151000000.0  42850000000.0  9.700000000000001e-08  5.2e-08  3.8e-08
32.4999  2239000000.0  44710000000.0  1.0000000000000001e-07  5.4e-08  3.9000000000000005e-08
34.9999  2324000000.0  46490000000.0  1.04e-07  5.6000000000000005e-08  4e-08
37.4999  2405000000.0  48190000000.0  1.07e-07  5.7e-08  4.2000000000000006e-08
39.9999  2484000000.0  49830000000.0  1.1e-07  5.9000000000000006e-08  4.3e-08
44.9999  2635000000.0  52950000000.0  1.16e-07  6.2e-08  4.5000000000000006e-08
49.9999  2777000000.0  55860000000.0  1.21e-07  6.5e-08  4.7000000000000004e-08
54.9999  2913000000.0  58600000000.0  1.27e-07  6.8e-08  4.9e-08
59.9999  3042000000.0000005  61200000000.0  1.3200000000000002e-07  7e-08  5.1e-08
64.9999  3167000000.0  63660000000.0  1.37e-07  7.3e-08  5.3000000000000005e-08
69.9999  3286000000.0  66000000000.0  1.41e-07  7.500000000000001e-08  5.4e-08
79.9999  3513000000.0  70390000000.0  1.5100000000000002e-07  8e-08  5.8e-08
89.9999  3726000000.0  74440000000.0  1.59e-07  8.400000000000001e-08  6.1e-08
99.9999  3928000000.0  78200000000.0  1.67e-07  8.800000000000001e-08  6.300000000000001e-08
110  4119000000.0  81710000000.0  1.7500000000000002e-07  9.2e-08  6.600000000000001e-08
120  4302000000.0  85010000000.0  1.83e-07  9.5e-08  6.900000000000001e-08
130  4478000000.0  88120000000.0  1.9e-07  9.9e-08  7.1e-08
139.999  4647000000.0  91070000000.0  1.97e-07  1.02e-07  7.4e-08
149.999  4810000000.0  93870000000.0  2.04e-07  1.05e-07  7.6e-08
159.999  4968000000.0  96530000000.0  2.1100000000000002e-07  1.0900000000000001e-07  7.800000000000001e-08
169.999  5121000000.0  99080000000.0  2.1700000000000002e-07  1.1200000000000001e-07  8.100000000000001e-08
179.999  5269000000.0  101500000000.0  2.2300000000000002e-07  1.1500000000000001e-07  8.3e-08
199.999  5554000000.0  106100000000.0  2.3600000000000002e-07  1.2000000000000002e-07  8.700000000000001e-08
224.999  5891000000.0  111400000000.0  2.51e-07  1.27e-07  9.2e-08
249.999  6210000000.0  116199999999.99998  2.65e-07  1.33e-07  9.600000000000001e-08
274.999  6513000000.0  120700000000.0  2.79e-07  1.3900000000000001e-07  1.01e-07
299.999  6803000000.0  124800000000.0  2.92e-07  1.4500000000000001e-07  1.05e-07
324.999  7080999999.999999  128699999999.99998  3.0500000000000004e-07  1.5100000000000002e-07  1.0900000000000001e-07
349.999  7348000000.0  132300000000.0  3.1700000000000005e-07  1.5600000000000002e-07  1.14e-07
374.999  7606000000.000001  135700000000.0  3.3e-07  1.61e-07  1.17e-07
399.999  7855000000.0  138900000000.0  3.42e-07  1.66e-07  1.21e-07
449.999  8332000000.000001  144900000000.0  3.65e-07  1.7600000000000001e-07  1.29e-07
499.999  8782000000.0  150300000000.0  3.8800000000000003e-07  1.8600000000000002e-07  1.36e-07
549.999  9211000000.0  155200000000.0  4.1000000000000004e-07  1.95e-07  1.43e-07
599.999  9621000000.0  159700000000.0  4.3100000000000003e-07  2.03e-07  1.49e-07
649.999  10009999999.999998  163800000000.0  4.52e-07  2.1200000000000002e-07  1.5600000000000002e-07
699.999  10390000000.0  167700000000.0  4.7200000000000004e-07  2.2e-07  1.6200000000000002e-07
799.999  11110000000.0  174700000000.0  5.12e-07  2.3500000000000003e-07  1.7400000000000002e-07
899.999  11780000000.0  180799999999.99997  5.5e-07  2.5000000000000004e-07  1.85e-07
999.999  12420000000.0  186300000000.0  5.870000000000001e-07  2.65e-07  1.96e-07
1100.0  13030000000.0  191200000000.0  6.23e-07  2.79e-07  2.0700000000000001e-07
1200.0  13610000000.0  195600000000.0  6.590000000000001e-07  2.92e-07  2.1700000000000002e-07
1300.0  14160000000.0  199600000000.0  6.94e-07  3.0500000000000004e-07  2.27e-07
1400.0  14700000000.0  203299999999.99997  7.280000000000001e-07  3.18e-07  2.3700000000000002e-07
1500.0  15210000000.0  206700000000.00003  7.620000000000001e-07  3.3100000000000004e-07  2.4700000000000003e-07
1600.0  15710000000.0  209800000000.0  7.95e-07  3.4300000000000004e-07  2.56e-07
1700.0  16190000000.0  212700000000.0  8.280000000000001e-07  3.5500000000000004e-07  2.66e-07
1800.0  16660000000.0  215400000000.0  8.6e-07  3.6700000000000004e-07  2.75e-07
2000.0  17560000000.0  220200000000.0  9.240000000000001e-07  3.9100000000000005e-07  2.9300000000000004e-07
2250.0  18630000000.0  225400000000.0  1.002e-06  4.1900000000000003e-07  3.1400000000000003e-07
2500.0  19640000000.0  229899999999.99997  1.0790000000000002e-06  4.47e-07  3.35e-07
2750.0  20600000000.0  233700000000.0  1.154e-06  4.73e-07  3.56e-07
3000.0  21509999999.999996  237100000000.0  1.229e-06  5.000000000000001e-07  3.7600000000000003e-07
3250.0  22390000000.0  240000000000.0  1.303e-06  5.26e-07  3.9500000000000003e-07
3500.0  23240000000.0  242500000000.0  1.376e-06  5.51e-07  4.1400000000000003e-07
3750.0  24049999999.999996  244800000000.0  1.4480000000000002e-06  5.760000000000001e-07  4.33e-07
4000.0  24840000000.0  246800000000.0  1.5190000000000002e-06  6.01e-07  4.52e-07
4500.0  26349999999.999996  250100000000.00003  1.661e-06  6.490000000000001e-07  4.88e-07
5000.0  27770000000.0  252600000000.00003  1.802e-06  6.970000000000001e-07  5.24e-07
5500.0  29130000000.0  254700000000.0  1.941e-06  7.440000000000001e-07  5.590000000000001e-07
6000.0  30420000000.0  256200000000.0  2.0790000000000003e-06  7.900000000000001e-07  5.930000000000001e-07
6500.0  31670000000.0  257399999999.99997  2.217e-06  8.35e-07  6.26e-07
7000.0  32860000000.0  258299999999.99997  2.3540000000000002e-06  8.8e-07  6.590000000000001e-07
8000.0  35130000000.0  259400000000.0  2.6260000000000004e-06  9.69e-07  7.25e-07
9000.0  37260000000.0  259700000000.0  2.898e-06  1.0560000000000001e-06  7.88e-07
10000.0  39280000000.0  259400000000.0  3.169e-06  1.142e-06  8.510000000000001e-07
11000.0  41190000000.0  258800000000.0  3.439e-06  1.227e-06  9.130000000000001e-07
12000.0  43019999999.99999  257900000000.0  3.71e-06  1.312e-06  9.740000000000001e-07
13000.0  44780000000.0  256700000000.00003  3.9810000000000005e-06  1.395e-06  1.034e-06
14000.0  46470000000.0  255400000000.0  4.253000000000001e-06  1.478e-06  1.094e-06
15000.0  48099999999.99999  253900000000.0  4.526e-06  1.5610000000000002e-06  1.153e-06
16000.0  49680000000.0  252300000000.0  4.799e-06  1.6430000000000002e-06  1.212e-06
17000.0  51210000000.00001  250700000000.0  5.073e-06  1.7240000000000001e-06  1.271e-06
18000.0  52690000000.0  249000000000.0  5.348e-06  1.8060000000000002e-06  1.3290000000000001e-06
20000.0  55540000000.0  245500000000.0  5.901000000000001e-06  1.967e-06  1.4450000000000001e-06
22500.0  58910000000.0  240900000000.0  6.5970000000000005e-06  2.167e-06  1.59e-06
25000.0  62100000000.0  236400000000.0  7.301e-06  2.3650000000000002e-06  1.7330000000000002e-06
27500.0  65130000000.0  232000000000.0  8.010000000000001e-06  2.562e-06  1.8760000000000001e-06
30000.0  68030000000.0  227600000000.00003  8.726e-06  2.757e-06  2.018e-06
32500.0  70810000000.0  223400000000.0  9.448e-06  2.95e-06  2.161e-06
35000.0  73480000000.0  219200000000.00003  1.02e-05  3.142e-06  2.3030000000000002e-06
37500.0  76060000000.0  215300000000.0  1.0900000000000002e-05  3.333e-06  2.4450000000000003e-06
40000.0  78550000000.0  211400000000.0  1.17e-05  3.5220000000000003e-06  2.588e-06
45000.0  83320000000.0  204200000000.00003  1.3100000000000002e-05  3.897e-06  2.8730000000000003e-06
50000.0  87820000000.0  197399999999.99997  1.4700000000000002e-05  4.267e-06  3.159e-06
55000.0  91980000000.0  191100000000.0  1.62e-05  4.631e-06  3.445e-06
60000.0  95550000000.0  185300000000.0  1.77e-05  4.991e-06  3.7320000000000004e-06
65000.0  99120000000.00002  179800000000.0  1.93e-05  5.346e-06  4.0200000000000005e-06
70000.0  102700000000.0  174800000000.0  2.09e-05  5.696e-06  4.3070000000000004e-06
80000.0  109700000000.0  165500000000.0  2.4100000000000003e-05  6.386e-06  4.885000000000001e-06
90000.0  116600000000.0  157400000000.0  2.7300000000000003e-05  7.0540000000000006e-06  5.462e-06
100000.0  123400000000.0  150100000000.0  3.0600000000000005e-05  7.7e-06  6.0380000000000005e-06
110000.0  130000000000.0  143600000000.0  3.3900000000000004e-05  8.324e-06  6.61e-06
120000.0  136500000000.0  137700000000.0  3.72e-05  8.926e-06  7.1780000000000006e-06
130000.0  142800000000.0  132400000000.0  4.05e-05  9.507e-06  7.739e-06
140000.0  149100000000.0  127500000000.0  4.38e-05  1.0100000000000002e-05  8.294e-06
150000.0  155100000000.0  123000000000.0  4.7000000000000004e-05  1.0600000000000002e-05  8.842000000000001e-06
160000.0  161100000000.0  118900000000.0  5.030000000000001e-05  1.1100000000000002e-05  9.381e-06
170000.0  166900000000.0  115100000000.0  5.360000000000001e-05  1.16e-05  9.912000000000001e-06
180000.0  172600000000.00003  111600000000.0  5.6800000000000005e-05  1.2100000000000001e-05  1.04e-05
200000.0  183700000000.0  105200000000.0  6.32e-05  1.3100000000000002e-05  1.15e-05
225000.0  197000000000.0  98360000000.0  7.110000000000001e-05  1.41e-05  1.27e-05
250000.0  209600000000.0  92480000000.0  7.890000000000001e-05  1.5100000000000001e-05  1.38e-05
275000.0  221600000000.0  87360000000.0  8.650000000000002e-05  1.6100000000000002e-05  1.4900000000000001e-05
300000.0  233100000000.0  82850000000.0  9.400000000000001e-05  1.69e-05  1.6000000000000003e-05
325000.0  244100000000.0  78850000000.0  0.00010140000000000001  1.77e-05  1.7e-05
350000.0  254600000000.0  75270000000.0  0.0001086  1.8400000000000003e-05  1.8e-05
375000.0  264700000000.0  72040000000.0  0.00011570000000000001  1.91e-05  1.8900000000000002e-05
400000.0  274400000000.0  69120000000.0  0.0001226  1.98e-05  1.98e-05
450000.0  292600000000.0  64020000000.0  0.0001362  2.1000000000000002e-05  2.1400000000000002e-05
500000.0  309500000000.0  59710000000.0  0.0001493  2.2100000000000002e-05  2.3e-05
550000.0  325400000000.0  56010000000.0  0.0001621  2.3100000000000002e-05  2.44e-05
600000.0  340300000000.0  52790000000.0  0.0001745  2.4e-05  2.57e-05
650000.0  354500000000.0  49970000000.0  0.0001866  2.4800000000000003e-05  2.6900000000000003e-05
700000.0  368000000000.0  47470000000.0  0.00019840000000000002  2.5600000000000002e-05  2.8100000000000002e-05
800000.0  393600000000.0  43220000000.0  0.0002211  2.7000000000000002e-05  3.0200000000000002e-05
900000.0  417900000000.0  39750000000.0  0.00024280000000000002  2.82e-05  3.21e-05
1000000.0  441300000000.0  36850000000.0  0.0002636  2.9300000000000004e-05  3.38e-05
1100000.0  464300000000.0  34390000000.0  0.0002836  3.0200000000000002e-05  3.5300000000000004e-05
1200000.0  487100000000.0  32260000000.0  0.00030280000000000004  3.1e-05  3.6700000000000004e-05
1300000.0  509900000000.0  30410000000.0  0.00032130000000000006  3.180000000000001e-05  3.8e-05
1400000.0  532900000000.0  28790000000.0  0.0003391  3.2500000000000004e-05  3.9200000000000004e-05
1500000.0  556000000000.0  27340000000.0  0.00035630000000000004  3.3100000000000005e-05  4.0300000000000004e-05
1600000.0  579400000000.0  26050000000.0  0.0003729  3.3600000000000004e-05  4.13e-05
1700000.0  603100000000.0  24880000000.0  0.00038880000000000007  3.41e-05  4.22e-05
1800000.0  627100000000.0  23830000000.0  0.00040420000000000007  3.46e-05  4.31e-05
2000000.0  676000000000.0  21990000000.0  0.0004335000000000001  3.55e-05  4.460000000000001e-05
2250000.0  738600000000.0  20090000000.0  0.00046740000000000003  3.65e-05  4.63e-05
2500000.0  802300000000.0  18510000000.0  0.0004988000000000001  3.7300000000000005e-05  4.77e-05
2750000.0  866700000000.0  17190000000.0  0.0005278  3.8e-05  4.89e-05
3000000.0  931200000000.0  16060000000.0  0.0005549000000000001  3.86e-05  5e-05
3250000.0  995200000000.0  15080000000.0  0.0005802000000000001  3.91e-05  5.0900000000000004e-05
3500000.0  1058000000000.0  14220000000.0  0.0006041  3.9500000000000005e-05  5.17e-05
3750000.0  1120000000000.0  13460000000.0  0.0006266  3.9800000000000005e-05  5.2400000000000007e-05
4000000.0  1180000000000.0  12790000000.0  0.000648  4.02e-05  5.31e-05
4500000.0  1293000000000.0  11640000000.0  0.0006878  4.0900000000000005e-05  5.42e-05
5000000.0  1397000000000.0  10690000000.0  0.0007245000000000001  4.1500000000000006e-05  5.5100000000000004e-05
5500000.0  1490000000000.0  9900000000.0  0.0007587000000000001  4.2000000000000004e-05  5.5900000000000004e-05
6000000.0  1573000000000.0  9225000000.0  0.0007911000000000001  4.25e-05  5.660000000000001e-05
6500000.0  1645000000000.0  8643000000.0  0.0008219000000000001  4.2800000000000004e-05  5.72e-05
7000000.0  1708000000000.0  8136000000.0  0.0008514000000000001  4.3200000000000007e-05  5.77e-05
8000000.0  1808000000000.0  7292000000.0  0.0009079000000000001  4.4200000000000004e-05  5.860000000000001e-05
9000000.0  1881000000000.0  6617000000.0  0.0009618000000000002  4.5e-05  5.940000000000001e-05
10000000.0  1934000000000.0  6064000000.000001  0.0010140000000000001  4.58e-05  6.000000000000001e-05
11000000.0  1972000000000.0  5603000000.0  0.0010649000000000001  4.6500000000000005e-05  6.06e-05
12000000.0  1998000000000.0  5211000000.0  0.0011151000000000002  4.72e-05  6.120000000000001e-05
13000000.0  2016000000000.0  4874000000.0  0.0011647  4.78e-05  6.170000000000001e-05
14000000.0  2027000000000.0  4580000000.0  0.0012140000000000002  4.8400000000000004e-05  6.21e-05
15000000.0  2032000000000.0  4323000000.0  0.0012631  4.9000000000000005e-05  6.26e-05
16000000.0  2034000000000.0  4094000000.0  0.0013122000000000001  4.9600000000000006e-05  6.3e-05
17000000.0  2032000000000.0  3890000000.0  0.0013612000000000001  5.02e-05  6.340000000000001e-05
18000000.0  2028000000000.0  3706999999.9999995  0.0014103000000000002  5.08e-05  6.38e-05
20000000.0  2013000000000.0  3391000000.0  0.0015091  5.280000000000001e-05  6.450000000000001e-05
22500000.0  1987000000000.0  3068000000.0  0.0016338000000000001  5.5900000000000004e-05  6.53e-05
25000000.0  1954000000000.0  2805000000.0000005  0.0017604  5.89e-05  6.610000000000001e-05
27500000.0  1918000000000.0  2586000000.0  0.0018893000000000002  6.18e-05  6.690000000000001e-05
30000000.0  1880000000000.0  2400000000.0  0.0020208  6.47e-05  6.76e-05
32500000.0  1841000000000.0  2241000000.0  0.0021550000000000002  6.75e-05  6.840000000000001e-05
35000000.0  1802000000000.0  2102999999.9999998  0.002292  7.04e-05  6.910000000000001e-05
37500000.0  1764000000000.0  1981000000.0  0.002432  7.33e-05  6.980000000000002e-05
40000000.0  1726000000000.0  1874000000.0  0.0025751000000000003  7.620000000000001e-05  7.060000000000001e-05
45000000.0  1655000000000.0  1693000000.0  0.0028706  8.710000000000002e-05  7.2e-05
50000000.0  1588000000000.0  1545000000.0  0.0031788000000000003  9.77e-05  7.35e-05
55000000.0  1531000000000.0  1423000000.0  0.0034992000000000005  0.0001079  7.510000000000001e-05
60000000.0  1488000000000.0  1319000000.0  0.0038302  0.0001178  7.670000000000001e-05
65000000.0  1438000000000.0  1230000000.0  0.004171600000000001  0.0001275  7.83e-05
70000000.0  1397000000000.0  1153000000.0  0.0045241000000000005  0.00013720000000000003  8e-05
80000000.0  1322000000000.0  1026000000.0  0.005259500000000001  0.00017250000000000002  8.35e-05
90000000.0  1258000000000.0  925700000.0  0.0060342  0.00020470000000000002  8.720000000000002e-05
100000000.0  1202000000000.0  843900000.0000001  0.0068467  0.00023510000000000002  9.11e-05
110000000.0  1153000000000.0  776100000.0  0.0076957000000000015  0.00026430000000000003  9.53e-05
120000000.0  1108000000000.0  718900000.0  0.008580200000000001  0.0002927  9.960000000000002e-05
130000000.0  1067000000000.0  669899999.9999999  0.009499500000000001  0.00032060000000000004  0.00010420000000000001
140000000.0  1030000000000.0  627500000.0  0.0105  0.0003482  0.000109
150000000.0  995300000000.0  590400000.0  0.011399999999999999  0.0003754  0.00011390000000000002
160000000.0  963199999999.9999  557600000.0  0.0125  0.00040260000000000003  0.00011910000000000001
170000000.0  933199999999.9999  528500000.0  0.013500000000000002  0.00042970000000000004  0.0001245
180000000.0  905100000000.0  502400000.0  0.0146  0.00045670000000000004  0.00013000000000000002
200000000.0  853400000000.0  457500000.0  0.0169  0.0005593000000000001  0.0001416
225000000.0  796100000000.0  412099999.99999994  0.0199  0.0007056000000000001  0.00015720000000000003
250000000.0  745400000000.0001  375200000.0  0.0232  0.0008425  0.00017390000000000003
275000000.0  700100000000.0  344600000.0  0.026600000000000002  0.0009751000000000001  0.00019160000000000002
300000000.0  659500000000.0  318900000.0  0.030299999999999997  0.001106  0.00021050000000000002
325000000.0  622900000000.0  296900000.0  0.0342  0.0012367  0.00023050000000000002
350000000.0  589900000000.0  277800000.0  0.0383  0.0013682  0.00025160000000000004
