energy[eV]  elec[eV/m]    nuclear[eV/m]  range[m]   longitudinal[m]    lateral[m]
1.2  497800000.0  5937000000.0  3.0000000000000004e-08  1.1000000000000001e-08  8e-09
1.3  518200000.0  6267000000.0  3.1e-08  1.1000000000000001e-08  8e-09
1.4  537700000.0  6586999999.999999  3.3000000000000004e-08  1.1000000000000001e-08  8e-09
1.5  556600000.0  6899999999.999999  3.4e-08  1.2000000000000002e-08  8e-09
1.6  574900000.0  7205000000.0  3.5e-08  1.2000000000000002e-08  9.000000000000001e-09
1.7  592600000.0  7503000000.0  3.6000000000000005e-08  1.3e-08  9.000000000000001e-09
1.8  609700000.0  7795000000.0  3.7e-08  1.3e-08  9.000000000000001e-09
2  642699999.9999999  8362000000.000001  3.8e-08  1.4000000000000001e-08  1e-08
2.25  681700000.0  9041000000.0  4e-08  1.4000000000000001e-08  1e-08
2.49999  718599999.9999999  9692000000.0  4.2000000000000006e-08  1.5000000000000002e-08  1.1000000000000001e-08
2.74999  753600000.0  10320000000.0  4.4000000000000004e-08  1.6e-08  1.2000000000000002e-08
2.99999  787200000.0  10920000000.0  4.6e-08  1.7e-08  1.2000000000000002e-08
3.24999  819300000.0  11510000000.0  4.7000000000000004e-08  1.7e-08  1.3e-08
3.49999  850200000.0  12080000000.0  4.9e-08  1.8000000000000002e-08  1.3e-08
3.74999  880100000.0  12629999999.999998  5.0000000000000004e-08  1.8000000000000002e-08  1.3e-08
3.99999  908900000.0  13170000000.0  5.2e-08  1.9e-08  1.4000000000000001e-08
4.49999  964100000.0  14210000000.0  5.4e-08  2e-08  1.5000000000000002e-08
4.99999  1016000000.0  15210000000.0  5.7e-08  2.1000000000000003e-08  1.5000000000000002e-08
5.49999  1066000000.0  16160000000.000002  5.9000000000000006e-08  2.2000000000000002e-08  1.6e-08
5.99999  1113000000.0  17090000000.0  6.1e-08  2.3e-08  1.7e-08
6.49999  1159000000.0  17980000000.0  6.300000000000001e-08  2.4000000000000003e-08  1.7e-08
6.99999  1202000000.0  18840000000.0  6.5e-08  2.4000000000000003e-08  1.8000000000000002e-08
7.99999  1285000000.0  20490000000.0  6.900000000000001e-08  2.6e-08  1.9e-08
8.99999  1363000000.0  22060000000.0  7.200000000000001e-08  2.7e-08  2e-08
9.99999  1437000000.0  23550000000.0  7.500000000000001e-08  2.8000000000000003e-08  2.1000000000000003e-08
10.9999  1507000000.0  24980000000.000004  7.800000000000001e-08  3.0000000000000004e-08  2.2000000000000002e-08
11.9999  1574000000.0000002  26360000000.0  8.100000000000001e-08  3.1e-08  2.3e-08
12.9999  1639000000.0  27679999999.999996  8.400000000000001e-08  3.2e-08  2.4000000000000003e-08
13.9999  1700000000.0000002  28960000000.0  8.6e-08  3.3000000000000004e-08  2.4000000000000003e-08
14.9999  1760000000.0  30210000000.0  8.800000000000001e-08  3.4e-08  2.5000000000000002e-08
15.9999  1818000000.0  31410000000.0  9.100000000000001e-08  3.5e-08  2.6e-08
16.9999  1874000000.0  32580000000.0  9.300000000000001e-08  3.6000000000000005e-08  2.7e-08
17.9999  1928000000.0  33720000000.0  9.5e-08  3.7e-08  2.7e-08
19.9999  2032000000.0  35920000000.0  9.9e-08  3.8e-08  2.8000000000000003e-08
22.4999  2156000000.0  38530000000.0  1.04e-07  4e-08  3.0000000000000004e-08
24.9999  2272000000.0  41010000000.0  1.08e-07  4.2000000000000006e-08  3.1e-08
27.4999  2383000000.0  43370000000.0  1.13e-07  4.4000000000000004e-08  3.2e-08
29.9999  2489000000.0  45630000000.0  1.17e-07  4.6e-08  3.4e-08
32.4999  2591000000.0  47810000000.0  1.21e-07  4.7000000000000004e-08  3.5e-08
34.9999  2688999999.9999995  49900000000.0  1.24e-07  4.9e-08  3.6000000000000005e-08
37.4999  2783000000.0  51920000000.0  1.28e-07  5.0000000000000004e-08  3.7e-08
39.9999  2874000000.0  53880000000.0  1.31e-07  5.1e-08  3.8e-08
44.9999  3049000000.0  57610000000.0  1.3800000000000002e-07  5.4e-08  4e-08
49.9999  3214000000.0  61140000000.0  1.4400000000000002e-07  5.6000000000000005e-08  4.1e-08
54.9999  3370000000.0  64490000000.0  1.49e-07  5.9000000000000006e-08  4.3e-08
59.9999  3520000000.0  67690000000.0  1.55e-07  6.1e-08  4.5000000000000006e-08
64.9999  3664000000.0  70750000000.0  1.6e-07  6.300000000000001e-08  4.6e-08
69.9999  3802000000.0  73690000000.0  1.65e-07  6.5e-08  4.7000000000000004e-08
79.9999  4064999999.9999995  79240000000.0  1.7400000000000002e-07  6.900000000000001e-08  5.0000000000000004e-08
89.9999  4311000000.0  84430000000.0  1.83e-07  7.200000000000001e-08  5.3000000000000005e-08
99.9999  4545000000.0  89300000000.0  1.9200000000000003e-07  7.500000000000001e-08  5.5e-08
110  4766000000.0  93910000000.0  1.9900000000000002e-07  7.9e-08  5.7e-08
120  4978000000.0  98290000000.0  2.0700000000000001e-07  8.100000000000001e-08  5.9000000000000006e-08
130  5182000000.0  102500000000.0  2.14e-07  8.400000000000001e-08  6.1e-08
139.999  5377000000.0  106400000000.0  2.21e-07  8.700000000000001e-08  6.300000000000001e-08
149.999  5566000000.0  110300000000.0  2.28e-07  8.9e-08  6.5e-08
159.999  5749000000.0  113900000000.0  2.3500000000000003e-07  9.2e-08  6.600000000000001e-08
169.999  5926000000.0  117500000000.0  2.41e-07  9.400000000000001e-08  6.8e-08
179.999  6097000000.0  120900000000.0  2.4700000000000003e-07  9.700000000000001e-08  7e-08
199.999  6427000000.000001  127400000000.0  2.5900000000000003e-07  1.01e-07  7.3e-08
224.999  6817000000.0  134900000000.0  2.73e-07  1.0600000000000001e-07  7.7e-08
249.999  7186000000.0  142000000000.0  2.86e-07  1.11e-07  8e-08
274.999  7536000000.0  148600000000.0  2.99e-07  1.16e-07  8.3e-08
299.999  7872000000.0  154800000000.0  3.11e-07  1.2000000000000002e-07  8.700000000000001e-08
324.999  8193000000.0  160700000000.0  3.23e-07  1.24e-07  9.000000000000001e-08
349.999  8502000000.0  166200000000.0  3.34e-07  1.28e-07  9.300000000000001e-08
374.999  8801000000.0  171600000000.0  3.46e-07  1.3200000000000002e-07  9.5e-08
399.999  9089000000.0  176600000000.0  3.56e-07  1.36e-07  9.8e-08
449.999  9641000000.0  186100000000.0  3.77e-07  1.43e-07  1.0300000000000001e-07
499.999  10160000000.0  194899999999.99997  3.97e-07  1.49e-07  1.08e-07
549.999  10660000000.0  203100000000.0  4.1500000000000005e-07  1.5600000000000002e-07  1.13e-07
599.999  11130000000.0  210700000000.0  4.3400000000000005e-07  1.6200000000000002e-07  1.1800000000000001e-07
649.999  11590000000.0  217900000000.0  4.51e-07  1.6800000000000002e-07  1.22e-07
699.999  12020000000.0  224600000000.0  4.68e-07  1.73e-07  1.2600000000000002e-07
799.999  12850000000.0  237100000000.0  5.01e-07  1.84e-07  1.35e-07
899.999  13630000000.0  248400000000.0  5.33e-07  1.9400000000000002e-07  1.42e-07
999.999  14370000000.0  258700000000.0  5.63e-07  2.03e-07  1.5000000000000002e-07
1100.0  15069999999.999998  268200000000.0  5.92e-07  2.1200000000000002e-07  1.5700000000000002e-07
1200.0  15740000000.0  276900000000.0  6.2e-07  2.21e-07  1.6300000000000002e-07
1300.0  16390000000.0  285100000000.0  6.47e-07  2.2900000000000003e-07  1.7000000000000001e-07
1400.0  17000000000.0  292700000000.0  6.730000000000001e-07  2.3700000000000002e-07  1.7600000000000001e-07
1500.0  17600000000.0  299900000000.0  6.99e-07  2.4500000000000004e-07  1.8200000000000002e-07
1600.0  18180000000.0  306600000000.0  7.25e-07  2.5200000000000003e-07  1.8800000000000002e-07
1700.0  18740000000.0  313000000000.0  7.5e-07  2.6e-07  1.9400000000000002e-07
1800.0  19280000000.0  319000000000.0  7.74e-07  2.67e-07  2.0000000000000002e-07
2000.0  20320000000.0  330200000000.00006  8.22e-07  2.8100000000000004e-07  2.1100000000000002e-07
2250.0  21560000000.0  342700000000.00006  8.790000000000001e-07  2.97e-07  2.2500000000000002e-07
2500.0  22719999999.999996  354000000000.0  9.35e-07  3.13e-07  2.3700000000000002e-07
2750.0  23830000000.0  364099999999.99994  9.89e-07  3.28e-07  2.5000000000000004e-07
3000.0  24890000000.0  373400000000.00006  1.041e-06  3.4300000000000004e-07  2.62e-07
3250.0  25910000000.000004  381800000000.0  1.0930000000000002e-06  3.5700000000000003e-07  2.73e-07
3500.0  26890000000.0  389600000000.0  1.1430000000000001e-06  3.7100000000000003e-07  2.85e-07
3750.0  27830000000.0  396800000000.0  1.193e-06  3.85e-07  2.96e-07
4000.0  28740000000.0  403500000000.0  1.2420000000000001e-06  3.9800000000000004e-07  3.0700000000000004e-07
4500.0  30490000000.0  415500000000.0  1.337e-06  4.23e-07  3.28e-07
5000.0  32140000000.0  426000000000.0  1.43e-06  4.4800000000000004e-07  3.4800000000000005e-07
5500.0  33700000000.0  435300000000.0  1.5210000000000001e-06  4.7200000000000004e-07  3.68e-07
6000.0  35200000000.0  443600000000.0  1.61e-06  4.95e-07  3.87e-07
6500.0  36640000000.0  451100000000.0  1.698e-06  5.180000000000001e-07  4.0500000000000004e-07
7000.0  38020000000.0  457800000000.0  1.7840000000000002e-06  5.4e-07  4.2400000000000004e-07
8000.0  40650000000.00001  469400000000.0  1.953e-06  5.830000000000001e-07  4.59e-07
9000.0  43110000000.0  479000000000.0  2.119e-06  6.25e-07  4.940000000000001e-07
10000.0  45450000000.0  487100000000.0  2.2810000000000003e-06  6.650000000000001e-07  5.27e-07
11000.0  47660000000.0  494000000000.0  2.441e-06  7.05e-07  5.6e-07
12000.0  49780000000.0  499900000000.0  2.5980000000000004e-06  7.43e-07  5.91e-07
13000.0  51820000000.00001  504900000000.0  2.7540000000000002e-06  7.81e-07  6.22e-07
14000.0  53770000000.0  509200000000.0  2.909e-06  8.18e-07  6.53e-07
15000.0  55660000000.0  512900000000.0  3.062e-06  8.550000000000001e-07  6.830000000000001e-07
16000.0  57490000000.0  516000000000.0  3.214e-06  8.91e-07  7.13e-07
17000.0  59260000000.0  518800000000.0  3.3650000000000004e-06  9.270000000000001e-07  7.420000000000001e-07
18000.0  60970000000.00001  521100000000.0  3.5150000000000002e-06  9.62e-07  7.71e-07
20000.0  64269999999.99999  524700000000.0  3.813e-06  1.032e-06  8.280000000000001e-07
22500.0  68170000000.0  527800000000.0  4.182e-06  1.1180000000000001e-06  8.97e-07
25000.0  71860000000.0  529600000000.0  4.548e-06  1.202e-06  9.65e-07
27500.0  75360000000.0  530400000000.0  4.913e-06  1.2840000000000001e-06  1.032e-06
30000.0  78720000000.0  530500000000.0  5.275e-06  1.3660000000000001e-06  1.0980000000000001e-06
32500.0  81930000000.0  530000000000.0  5.637e-06  1.446e-06  1.1630000000000001e-06
35000.0  85020000000.0  529000000000.0  5.9990000000000005e-06  1.526e-06  1.2280000000000001e-06
37500.0  88010000000.0  527600000000.0  6.36e-06  1.605e-06  1.291e-06
40000.0  90890000000.0  525900000000.00006  6.72e-06  1.683e-06  1.354e-06
45000.0  96410000000.0  521700000000.0  7.442e-06  1.838e-06  1.4790000000000002e-06
50000.0  101600000000.0  517000000000.0  8.165e-06  1.992e-06  1.602e-06
55000.0  106600000000.0  511700000000.0  8.890000000000001e-06  2.143e-06  1.7240000000000001e-06
60000.0  111300000000.00002  506300000000.0  9.617000000000001e-06  2.2930000000000003e-06  1.844e-06
65000.0  115900000000.0  500600000000.0  1.0300000000000001e-05  2.442e-06  1.964e-06
70000.0  120200000000.0  494900000000.0  1.1100000000000002e-05  2.589e-06  2.0830000000000002e-06
80000.0  128500000000.0  483400000000.00006  1.2600000000000001e-05  2.882e-06  2.3200000000000002e-06
90000.0  136300000000.00002  472000000000.0  1.4e-05  3.1710000000000002e-06  2.555e-06
100000.0  143700000000.0  461000000000.0  1.55e-05  3.456e-06  2.7880000000000002e-06
110000.0  148900000000.0  450400000000.0  1.7100000000000002e-05  3.738e-06  3.0210000000000004e-06
120000.0  153600000000.0  440200000000.00006  1.86e-05  4.018e-06  3.254e-06
130000.0  158900000000.0  430500000000.0  2.0200000000000003e-05  4.296e-06  3.486e-06
140000.0  164600000000.0  421200000000.0  2.1700000000000002e-05  4.571e-06  3.7180000000000002e-06
150000.0  170500000000.0  412299999999.99994  2.3300000000000004e-05  4.843e-06  3.951e-06
160000.0  176600000000.0  403800000000.0  2.4900000000000006e-05  5.112e-06  4.1830000000000004e-06
170000.0  182800000000.0  395700000000.0  2.65e-05  5.378e-06  4.415e-06
180000.0  188900000000.0  387900000000.0  2.8100000000000002e-05  5.641000000000001e-06  4.646e-06
200000.0  200900000000.0  373400000000.00006  3.13e-05  6.1620000000000005e-06  5.1090000000000006e-06
225000.0  215200000000.0  356900000000.0  3.54e-05  6.798000000000001e-06  5.684e-06
250000.0  228700000000.0  342000000000.0  3.94e-05  7.413000000000001e-06  6.255e-06
275000.0  241300000000.0  328500000000.0  4.35e-05  8.008e-06  6.822e-06
300000.0  252900000000.0  316200000000.0  4.77e-05  8.584000000000001e-06  7.382000000000001e-06
325000.0  263700000000.0  305000000000.0  5.18e-05  9.143e-06  7.938000000000001e-06
350000.0  273700000000.0  294600000000.0  5.5900000000000004e-05  9.686e-06  8.487e-06
375000.0  283100000000.0  285100000000.0  6.0100000000000004e-05  1.02e-05  9.031e-06
400000.0  291900000000.0  276200000000.0  6.42e-05  1.0700000000000001e-05  9.569000000000001e-06
450000.0  307900000000.0  260300000000.0  7.26e-05  1.17e-05  1.0600000000000002e-05
500000.0  322400000000.0  246400000000.0  8.09e-05  1.27e-05  1.17e-05
550000.0  335700000000.0  234200000000.00003  8.93e-05  1.3600000000000002e-05  1.27e-05
600000.0  348200000000.0  223299999999.99997  9.76e-05  1.45e-05  1.3700000000000003e-05
650000.0  360100000000.0  213500000000.0  0.000106  1.54e-05  1.4700000000000002e-05
700000.0  371700000000.0  204700000000.0  0.0001143  1.62e-05  1.5600000000000003e-05
800000.0  394000000000.0  189300000000.0  0.0001308  1.7800000000000002e-05  1.7500000000000002e-05
900000.0  415900000000.00006  176400000000.0  0.00014720000000000003  1.9200000000000003e-05  1.9200000000000003e-05
1000000.0  437700000000.00006  165400000000.0  0.00016340000000000001  2.0600000000000003e-05  2.09e-05
1100000.0  459500000000.0  155900000000.0  0.00017920000000000002  2.1800000000000005e-05  2.25e-05
1200000.0  481500000000.0  147500000000.0  0.00019480000000000002  2.3e-05  2.4e-05
1300000.0  503600000000.0  140100000000.0  0.00021  2.4100000000000003e-05  2.55e-05
1400000.0  526000000000.0  133500000000.0  0.0002249  2.51e-05  2.6900000000000003e-05
1500000.0  548500000000.0  127600000000.0  0.00023950000000000002  2.6000000000000002e-05  2.82e-05
1600000.0  571100000000.0  122300000000.0  0.00025370000000000004  2.6800000000000004e-05  2.9400000000000003e-05
1700000.0  593900000000.0  117400000000.0  0.00026760000000000005  2.76e-05  3.0600000000000005e-05
1800000.0  616900000000.0  113000000000.0  0.00028120000000000006  2.8400000000000003e-05  3.1700000000000005e-05
2000000.0  663300000000.0  105100000000.0  0.00030730000000000004  2.9800000000000003e-05  3.38e-05
2250000.0  722200000000.0  96920000000.0  0.00033810000000000003  3.1400000000000004e-05  3.6200000000000006e-05
2500000.0  781800000000.0001  90030000000.0  0.00036720000000000004  3.27e-05  3.82e-05
2750000.0  842200000000.0  84149999999.99998  0.00039450000000000005  3.3900000000000004e-05  4.01e-05
3000000.0  903300000000.0  79070000000.0  0.0004203  3.490000000000001e-05  4.1700000000000004e-05
3250000.0  965100000000.0  74640000000.0  0.0004447  3.58e-05  4.3200000000000007e-05
3500000.0  1027000000000.0  70730000000.0  0.0004677000000000001  3.65e-05  4.4500000000000004e-05
3750000.0  1090000000000.0  67250000000.0  0.0004896000000000001  3.72e-05  4.5700000000000006e-05
4000000.0  1153000000000.0  64130000000.0  0.0005105  3.7800000000000004e-05  4.68e-05
4500000.0  1279000000000.0  58770000000.0  0.0005492  3.9e-05  4.8700000000000005e-05
5000000.0  1404000000000.0  54320000000.00001  0.0005846  3.990000000000001e-05  5.030000000000001e-05
5500000.0  1528000000000.0  50550000000.0  0.0006173  4.070000000000001e-05  5.17e-05
6000000.0  1650000000000.0  47320000000.0  0.0006476000000000001  4.1400000000000003e-05  5.280000000000001e-05
6500000.0  1769000000000.0  44510000000.0  0.0006759000000000001  4.190000000000001e-05  5.380000000000001e-05
7000000.0  1883000000000.0  42050000000.0  0.0007024  4.240000000000001e-05  5.47e-05
8000000.0  2099000000000.0  37930000000.0  0.0007514  4.35e-05  5.6200000000000004e-05
9000000.0  2295000000000.0  34600000000.0  0.000796  4.43e-05  5.7400000000000006e-05
10000000.0  2470000000000.0  31860000000.0  0.0008372000000000001  4.5e-05  5.84e-05
11000000.0  2625000000000.0  29550000000.0  0.0008758  4.56e-05  5.9300000000000005e-05
12000000.0  2760000000000.0  27580000000.0  0.0009125000000000001  4.610000000000001e-05  6.000000000000001e-05
13000000.0  2878000000000.0  25880000000.0  0.0009475000000000001  4.660000000000001e-05  6.0700000000000005e-05
14000000.0  2981000000000.0  24390000000.0  0.0009812000000000002  4.7000000000000004e-05  6.120000000000001e-05
15000000.0  3071000000000.0  23080000000.0  0.0010139  4.740000000000001e-05  6.18e-05
16000000.0  3149000000000.0  21910000000.0  0.0010458000000000002  4.77e-05  6.230000000000001e-05
17000000.0  3217000000000.0  20860000000.0  0.0010769  4.81e-05  6.27e-05
18000000.0  3277000000000.0  19920000000.0  0.0011075000000000002  4.8400000000000004e-05  6.31e-05
20000000.0  3378000000000.0  18280000000.0  0.0011671000000000001  4.93e-05  6.390000000000001e-05
22500000.0  3475000000000.0  16610000000.0  0.0012396  5.0600000000000003e-05  6.47e-05
25000000.0  3552000000000.0  15230000000.0  0.0013104  5.17e-05  6.54e-05
27500000.0  3612000000000.0  14090000000.0  0.0013798  5.280000000000001e-05  6.6e-05
30000000.0  3661000000000.0  13110000000.0  0.0014482  5.39e-05  6.66e-05
32500000.0  3701000000000.0  12270000000.0  0.0015158000000000003  5.480000000000001e-05  6.720000000000001e-05
35000000.0  3733000000000.0  11540000000.0  0.0015828  5.580000000000001e-05  6.77e-05
37500000.0  3758000000000.0  10890000000.0  0.0016493000000000002  5.67e-05  6.82e-05
40000000.0  3778000000000.0  10320000000.0  0.0017154  5.75e-05  6.860000000000001e-05
45000000.0  3803000000000.0  9351000000.0  0.0018469  6.0700000000000005e-05  6.950000000000001e-05
50000000.0  3813000000000.0  8559000000.0  0.0019778  6.360000000000001e-05  7.030000000000001e-05
55000000.0  3812000000000.0  7897999999.999999  0.0021086000000000004  6.64e-05  7.1e-05
60000000.0  3801000000000.0  7338000000.0  0.0022397000000000003  6.900000000000001e-05  7.170000000000001e-05
65000000.0  3783000000000.0  6857000000.0  0.0023712000000000004  7.16e-05  7.240000000000001e-05
70000000.0  3760000000000.0  6439000000.0  0.0025035  7.42e-05  7.3e-05
80000000.0  3702000000000.0  5748000000.0  0.0027711000000000003  8.35e-05  7.43e-05
90000000.0  3636000000000.0  5198000000.0  0.0030432000000000002  9.210000000000002e-05  7.55e-05
100000000.0  3565000000000.0  4749000000.0  0.0033206000000000004  0.0001003  7.66e-05
110000000.0  3521000000000.0  4376000000.0  0.0036024000000000004  0.00010800000000000001  7.780000000000001e-05
120000000.0  3470000000000.0  4060000000.0000005  0.0038881000000000002  0.00011550000000000002  7.890000000000001e-05
130000000.0  3408000000000.0  3790000000.0  0.0041786  0.0001227  8e-05
140000000.0  3355000000000.0  3555000000.0  0.0044740000000000005  0.0001298  8.12e-05
150000000.0  3304000000000.0  3348999999.9999995  0.0047740000000000005  0.00013670000000000002  8.230000000000001e-05
160000000.0  3254000000000.0  3167000000.0  0.0050787  0.00014340000000000002  8.340000000000001e-05
170000000.0  3205000000000.0  3005000000.0  0.0053879999999999996  0.00015010000000000002  8.460000000000001e-05
180000000.0  3158000000000.0  2859000000.0  0.005702100000000001  0.0001566  8.570000000000001e-05
200000000.0  3066000000000.0  2609000000.0  0.0063443  0.00018130000000000002  8.800000000000001e-05
225000000.0  2959000000000.0  2354000000.0  0.007173700000000001  0.00021610000000000002  9.1e-05
250000000.0  2858000000000.0  2147000000.0  0.0080328  0.0002482  9.400000000000001e-05
275000000.0  2763000000000.0  1975000000.0  0.008921900000000002  0.00027840000000000005  9.720000000000002e-05
300000000.0  2673000000000.0  1830000000.0  0.0098414  0.00030750000000000005  0.0001004
325000000.0  2588000000000.0  1706000000.0  0.0108  0.00033570000000000003  0.00010380000000000002
350000000.0  2506000000000.0  1598999999.9999998  0.0118  0.00036350000000000005  0.00010720000000000002
