energy[eV]  elec[eV/m]    nuclear[eV/m]  range[m]   longitudinal[m]    lateral[m]
1.2  644300000.0  5947000000.0  2.9e-08  1e-08  7.000000000000001e-09
1.3  670600000.0  6277000000.0  3.1e-08  1.1000000000000001e-08  8e-09
1.4  696000000.0  6597000000.0  3.2e-08  1.1000000000000001e-08  8e-09
1.5  720400000.0000001  6909999999.999999  3.3000000000000004e-08  1.2000000000000002e-08  8e-09
1.6  743999999.9999999  7214000000.0  3.4e-08  1.2000000000000002e-08  9.000000000000001e-09
1.7  766900000.0  7512000000.0  3.5e-08  1.2000000000000002e-08  9.000000000000001e-09
1.8  789200000.0  7804000000.0  3.6000000000000005e-08  1.3e-08  9.000000000000001e-09
2  831800000.0  8370000000.0  3.7e-08  1.3e-08  1e-08
2.25  882300000.0  9048000000.0  4e-08  1.4000000000000001e-08  1e-08
2.49999  930000000.0  9698000000.0  4.1e-08  1.5000000000000002e-08  1.1000000000000001e-08
2.74999  975400000.0  10320000000.0  4.3e-08  1.5000000000000002e-08  1.1000000000000001e-08
2.99999  1019000000.0  10930000000.0  4.5000000000000006e-08  1.6e-08  1.2000000000000002e-08
3.24999  1060000000.0  11510000000.0  4.6e-08  1.7e-08  1.2000000000000002e-08
3.49999  1100000000.0  12080000000.0  4.8000000000000006e-08  1.7e-08  1.3e-08
3.74999  1139000000.0  12629999999.999998  4.9e-08  1.8000000000000002e-08  1.3e-08
3.99999  1176000000.0  13170000000.0  5.1e-08  1.8000000000000002e-08  1.4000000000000001e-08
4.49999  1248000000.0  14210000000.0  5.3000000000000005e-08  1.9e-08  1.4000000000000001e-08
4.99999  1315000000.0  15200000000.0  5.6000000000000005e-08  2e-08  1.5000000000000002e-08
5.49999  1379000000.0  16150000000.0  5.8e-08  2.1000000000000003e-08  1.6e-08
5.99999  1441000000.0  17070000000.0  6.000000000000001e-08  2.2000000000000002e-08  1.6e-08
6.49999  1500000000.0  17960000000.0  6.2e-08  2.3e-08  1.7e-08
6.99999  1556000000.0  18820000000.0  6.4e-08  2.4000000000000003e-08  1.8000000000000002e-08
7.99999  1664000000.0  20460000000.0  6.7e-08  2.5000000000000002e-08  1.9e-08
8.99999  1765000000.0  22020000000.0  7.1e-08  2.7e-08  2e-08
9.99999  1860000000.0  23500000000.0  7.4e-08  2.8000000000000003e-08  2.1000000000000003e-08
10.9999  1951000000.0  24930000000.0  7.7e-08  2.9e-08  2.2000000000000002e-08
11.9999  2038000000.0  26300000000.0  7.9e-08  3.0000000000000004e-08  2.2000000000000002e-08
12.9999  2121000000.0  27620000000.0  8.2e-08  3.1e-08  2.3e-08
13.9999  2201000000.0  28889999999.999996  8.400000000000001e-08  3.2e-08  2.4000000000000003e-08
14.9999  2278000000.0  30120000000.0  8.700000000000001e-08  3.3000000000000004e-08  2.5000000000000002e-08
15.9999  2353000000.0  31320000000.0  8.9e-08  3.4e-08  2.5000000000000002e-08
16.9999  2425000000.0  32490000000.0  9.100000000000001e-08  3.5e-08  2.6e-08
17.9999  2496000000.0  33620000000.0  9.300000000000001e-08  3.6000000000000005e-08  2.7e-08
19.9999  2631000000.0  35800000000.0  9.700000000000001e-08  3.8e-08  2.8000000000000003e-08
22.4999  2790000000.0000005  38390000000.0  1.02e-07  4e-08  2.9e-08
24.9999  2940999999.9999995  40850000000.0  1.07e-07  4.1e-08  3.1e-08
27.4999  3085000000.0  43200000000.0  1.11e-07  4.3e-08  3.2e-08
29.9999  3222000000.0  45439999999.99999  1.1500000000000001e-07  4.5000000000000006e-08  3.3000000000000004e-08
32.4999  3353000000.0  47590000000.0  1.1800000000000001e-07  4.6e-08  3.4e-08
34.9999  3479999999.9999995  49670000000.0  1.22e-07  4.8000000000000006e-08  3.5e-08
37.4999  3602000000.0  51670000000.0  1.2600000000000002e-07  4.9e-08  3.6000000000000005e-08
39.9999  3720000000.0  53610000000.0  1.29e-07  5.1e-08  3.7e-08
44.9999  3946000000.0  57300000000.00001  1.35e-07  5.3000000000000005e-08  3.9000000000000005e-08
49.9999  4159000000.0  60800000000.0  1.41e-07  5.6000000000000005e-08  4.1e-08
54.9999  4362000000.0  64120000000.0  1.47e-07  5.8e-08  4.2000000000000006e-08
59.9999  4556000000.0  67280000000.0  1.52e-07  6.000000000000001e-08  4.4000000000000004e-08
64.9999  4742000000.0  70300000000.0  1.58e-07  6.2e-08  4.5000000000000006e-08
69.9999  4921000000.0  73210000000.0  1.6200000000000002e-07  6.4e-08  4.7000000000000004e-08
79.9999  5261000000.0  78690000000.0  1.72e-07  6.8e-08  4.9e-08
89.9999  5580000000.000001  83810000000.0  1.8100000000000002e-07  7.1e-08  5.2e-08
99.9999  5881999999.999999  88630000000.0  1.89e-07  7.4e-08  5.4e-08
110  6169000000.0  93170000000.0  1.97e-07  7.7e-08  5.6000000000000005e-08
120  6443000000.0  97480000000.0  2.04e-07  8e-08  5.8e-08
130  6706000000.0  101600000000.0  2.1200000000000002e-07  8.3e-08  6.000000000000001e-08
139.999  6959999999.999999  105500000000.0  2.1900000000000002e-07  8.6e-08  6.2e-08
149.999  7204000000.0  109300000000.0  2.2500000000000002e-07  8.800000000000001e-08  6.4e-08
159.999  7440000000.0  112899999999.99998  2.32e-07  9.100000000000001e-08  6.600000000000001e-08
169.999  7669000000.0  116400000000.0  2.3800000000000001e-07  9.300000000000001e-08  6.7e-08
179.999  7892000000.0  119700000000.0  2.44e-07  9.5e-08  6.900000000000001e-08
199.999  8318000000.0  126100000000.0  2.56e-07  1.0000000000000001e-07  7.200000000000001e-08
224.999  8823000000.0  133500000000.0  2.7e-07  1.05e-07  7.6e-08
249.999  9300000000.0  140400000000.0  2.8300000000000003e-07  1.1e-07  7.9e-08
274.999  9754000000.0  146900000000.0  2.96e-07  1.14e-07  8.2e-08
299.999  10190000000.0  153000000000.0  3.08e-07  1.1900000000000001e-07  8.6e-08
324.999  10600000000.0  158800000000.0  3.2e-07  1.23e-07  8.9e-08
349.999  11000000000.0  164200000000.00003  3.3100000000000004e-07  1.27e-07  9.2e-08
374.999  11390000000.0  169400000000.0  3.42e-07  1.3e-07  9.400000000000001e-08
399.999  11760000000.0  174400000000.0  3.53e-07  1.34e-07  9.700000000000001e-08
449.999  12480000000.0  183700000000.0  3.7400000000000004e-07  1.41e-07  1.02e-07
499.999  13150000000.0  192300000000.0  3.9300000000000004e-07  1.48e-07  1.07e-07
549.999  13790000000.0  200200000000.0  4.1200000000000004e-07  1.54e-07  1.1200000000000001e-07
599.999  14410000000.0  207700000000.0  4.3e-07  1.6e-07  1.17e-07
649.999  15000000000.0  214600000000.0  4.4800000000000004e-07  1.66e-07  1.21e-07
699.999  15560000000.0  221200000000.0  4.6500000000000005e-07  1.71e-07  1.2500000000000002e-07
799.999  16640000000.0  233299999999.99997  4.98e-07  1.8200000000000002e-07  1.33e-07
899.999  17650000000.0  244300000000.0  5.29e-07  1.9200000000000003e-07  1.41e-07
999.999  18600000000.0  254300000000.0  5.590000000000001e-07  2.01e-07  1.48e-07
1100.0  19510000000.0  263500000000.0  5.88e-07  2.1e-07  1.55e-07
1200.0  20380000000.0  272000000000.0  6.170000000000001e-07  2.1900000000000002e-07  1.6200000000000002e-07
1300.0  21210000000.0  279900000000.0  6.44e-07  2.27e-07  1.6900000000000002e-07
1400.0  22010000000.0  287200000000.0  6.71e-07  2.3500000000000003e-07  1.7500000000000002e-07
1500.0  22780000000.0  294100000000.0  6.970000000000001e-07  2.43e-07  1.8100000000000002e-07
1600.0  23530000000.000004  300700000000.0  7.22e-07  2.51e-07  1.8700000000000002e-07
1700.0  24250000000.0  306800000000.0  7.47e-07  2.58e-07  1.9300000000000002e-07
1800.0  24960000000.0  312600000000.0  7.71e-07  2.65e-07  1.9900000000000002e-07
2000.0  26309999999.999996  323400000000.00006  8.19e-07  2.79e-07  2.1e-07
2250.0  27900000000.0  335400000000.0  8.77e-07  2.9500000000000003e-07  2.2300000000000002e-07
2500.0  29410000000.0  346200000000.0  9.330000000000001e-07  3.11e-07  2.3600000000000002e-07
2750.0  30850000000.0  355900000000.00006  9.87e-07  3.2600000000000003e-07  2.49e-07
3000.0  32220000000.0  364700000000.0  1.04e-06  3.41e-07  2.61e-07
3250.0  33530000000.000004  372800000000.0  1.092e-06  3.5500000000000004e-07  2.72e-07
3500.0  34800000000.0  380200000000.00006  1.1430000000000001e-06  3.6900000000000004e-07  2.84e-07
3750.0  36020000000.0  387100000000.0  1.192e-06  3.8300000000000003e-07  2.9500000000000003e-07
4000.0  37200000000.0  393400000000.00006  1.241e-06  3.96e-07  3.06e-07
4500.0  39460000000.0  404799999999.99994  1.337e-06  4.21e-07  3.27e-07
5000.0  41590000000.0  414799999999.99994  1.4310000000000001e-06  4.4600000000000005e-07  3.47e-07
5500.0  43620000000.0  423600000000.0  1.522e-06  4.7000000000000005e-07  3.6700000000000004e-07
6000.0  45560000000.0  431400000000.0  1.6120000000000002e-06  4.93e-07  3.8600000000000004e-07
6500.0  47420000000.0  438400000000.00006  1.7e-06  5.16e-07  4.0500000000000004e-07
7000.0  49210000000.0  444700000000.0  1.7860000000000001e-06  5.380000000000001e-07  4.23e-07
8000.0  52610000000.0  455500000000.0  1.956e-06  5.81e-07  4.5800000000000005e-07
9000.0  55800000000.0  464500000000.0  2.1230000000000003e-06  6.22e-07  4.93e-07
10000.0  58820000000.0  471900000000.0  2.2860000000000002e-06  6.63e-07  5.26e-07
11000.0  61689999999.99999  478200000000.0  2.447e-06  7.02e-07  5.58e-07
12000.0  64429999999.99999  483600000000.0  2.605e-06  7.4e-07  5.900000000000001e-07
13000.0  67060000000.00001  488100000000.0  2.762e-06  7.78e-07  6.210000000000001e-07
14000.0  69600000000.0  491900000000.0  2.917e-06  8.15e-07  6.520000000000001e-07
15000.0  72040000000.0  495200000000.00006  3.0710000000000003e-06  8.520000000000001e-07  6.82e-07
16000.0  74400000000.0  498000000000.0  3.2230000000000003e-06  8.87e-07  7.110000000000001e-07
17000.0  76690000000.0  500300000000.0  3.3750000000000003e-06  9.230000000000001e-07  7.4e-07
18000.0  78920000000.0  502299999999.99994  3.525e-06  9.58e-07  7.690000000000001e-07
20000.0  83180000000.0  505300000000.0  3.824e-06  1.027e-06  8.25e-07
22500.0  88230000000.0  507700000000.00006  4.194e-06  1.1120000000000001e-06  8.94e-07
25000.0  93000000000.0  508900000000.0  4.5620000000000005e-06  1.195e-06  9.62e-07
27500.0  97540000000.0  509200000000.0  4.926e-06  1.2760000000000001e-06  1.0280000000000002e-06
30000.0  101900000000.0  508800000000.0  5.29e-06  1.357e-06  1.0930000000000002e-06
32500.0  106000000000.0  507800000000.0  5.652e-06  1.436e-06  1.158e-06
35000.0  110000000000.0  506400000000.0  6.013000000000001e-06  1.514e-06  1.221e-06
37500.0  113900000000.0  504700000000.0  6.373000000000001e-06  1.591e-06  1.2840000000000001e-06
40000.0  117600000000.0  502700000000.00006  6.733000000000001e-06  1.6680000000000002e-06  1.3460000000000001e-06
45000.0  124800000000.0  498100000000.0  7.452000000000001e-06  1.819e-06  1.4680000000000002e-06
50000.0  131500000000.0  492900000000.0  8.171e-06  1.968e-06  1.5890000000000002e-06
55000.0  137900000000.0  487299999999.99994  8.891e-06  2.115e-06  1.7080000000000002e-06
60000.0  144100000000.0  481599999999.99994  9.611e-06  2.26e-06  1.825e-06
65000.0  150000000000.0  475700000000.0  1.0300000000000001e-05  2.403e-06  1.942e-06
70000.0  155600000000.0  469900000000.0  1.1100000000000002e-05  2.544e-06  2.057e-06
80000.0  166400000000.0  458200000000.0  1.25e-05  2.824e-06  2.2860000000000002e-06
90000.0  176500000000.0  446700000000.0  1.4e-05  3.0980000000000002e-06  2.5120000000000003e-06
100000.0  186000000000.0  435700000000.0  1.54e-05  3.366e-06  2.736e-06
110000.0  194400000000.0  425200000000.00006  1.69e-05  3.6290000000000003e-06  2.9580000000000003e-06
120000.0  202000000000.0  415100000000.0  1.8400000000000003e-05  3.889e-06  3.1790000000000004e-06
130000.0  209200000000.00003  405500000000.0  1.9900000000000003e-05  4.1440000000000005e-06  3.3980000000000003e-06
140000.0  216000000000.0  396400000000.0  2.1400000000000002e-05  4.395e-06  3.616e-06
150000.0  222500000000.0  387700000000.00006  2.29e-05  4.643e-06  3.834e-06
160000.0  228800000000.0  379400000000.0  2.44e-05  4.887e-06  4.05e-06
170000.0  234899999999.99997  371500000000.0  2.6000000000000002e-05  5.128000000000001e-06  4.265000000000001e-06
180000.0  240799999999.99997  363900000000.0  2.75e-05  5.366e-06  4.48e-06
200000.0  252200000000.0  349799999999.99994  3.0600000000000005e-05  5.839e-06  4.907000000000001e-06
225000.0  265500000000.0  333900000000.0  3.4500000000000005e-05  6.415e-06  5.437000000000001e-06
250000.0  277800000000.0  319600000000.0  3.8400000000000005e-05  6.972e-06  5.962000000000001e-06
275000.0  289300000000.0  306700000000.0  4.2300000000000005e-05  7.511000000000001e-06  6.481e-06
300000.0  300000000000.0  294900000000.0  4.63e-05  8.034000000000001e-06  6.995000000000001e-06
325000.0  310000000000.0  284200000000.0  5.030000000000001e-05  8.541e-06  7.5040000000000005e-06
350000.0  319400000000.0  274300000000.0  5.42e-05  9.033e-06  8.008e-06
375000.0  328100000000.0  265200000000.0  5.8200000000000005e-05  9.513e-06  8.506000000000001e-06
400000.0  336400000000.0  256800000000.0  6.220000000000001e-05  9.979e-06  8.999e-06
450000.0  351599999999.99994  241800000000.0  7.02e-05  1.0900000000000002e-05  9.969e-06
500000.0  365500000000.0  228700000000.0  7.83e-05  1.18e-05  1.0900000000000002e-05
550000.0  378300000000.0  217100000000.0  8.630000000000001e-05  1.2600000000000001e-05  1.18e-05
600000.0  390300000000.0  206800000000.0  9.43e-05  1.3400000000000002e-05  1.2800000000000001e-05
650000.0  401800000000.0  197600000000.00003  0.00010240000000000001  1.4200000000000001e-05  1.3600000000000002e-05
700000.0  412900000000.0  189300000000.0  0.0001104  1.4900000000000001e-05  1.45e-05
800000.0  434099999999.99994  175000000000.0  0.0001263  1.64e-05  1.62e-05
900000.0  454600000000.0  162900000000.0  0.000142  1.77e-05  1.7800000000000002e-05
1000000.0  474799999999.99994  152600000000.0  0.0001576  1.8900000000000002e-05  1.93e-05
1100000.0  494799999999.99994  143700000000.0  0.0001729  2.01e-05  2.08e-05
1200000.0  514799999999.99994  135900000000.0  0.00018800000000000002  2.11e-05  2.2200000000000004e-05
1300000.0  534799999999.99994  129100000000.0  0.00020280000000000002  2.2100000000000002e-05  2.36e-05
1400000.0  554900000000.0  122899999999.99998  0.00021730000000000002  2.3e-05  2.4800000000000003e-05
1500000.0  575200000000.0  117400000000.0  0.00023150000000000002  2.39e-05  2.6000000000000002e-05
1600000.0  595600000000.0  112500000000.0  0.0002455  2.4700000000000004e-05  2.7200000000000004e-05
1700000.0  616200000000.0  108000000000.0  0.0002591  2.54e-05  2.8300000000000003e-05
1800000.0  637000000000.0  103800000000.00002  0.0002725  2.61e-05  2.9400000000000003e-05
2000000.0  679100000000.0  96590000000.0  0.0002983  2.75e-05  3.13e-05
2250000.0  732800000000.0  88980000000.0  0.0003291  2.9e-05  3.3600000000000004e-05
2500000.0  787800000000.0  82609999999.99998  0.00035810000000000003  3.0400000000000004e-05  3.55e-05
2750000.0  844000000000.0  77180000000.0  0.00038560000000000005  3.15e-05  3.7300000000000005e-05
3000000.0  901300000000.0  72500000000.0  0.0004116  3.2500000000000004e-05  3.8900000000000004e-05
3250000.0  959700000000.0  68410000000.0  0.00043620000000000003  3.33e-05  4.0300000000000004e-05
3500000.0  1019000000000.0  64800000000.00001  0.00045960000000000006  3.41e-05  4.16e-05
3750000.0  1079000000000.0  61600000000.0  0.0004819  3.4800000000000006e-05  4.2800000000000004e-05
4000000.0  1139000000000.0  58730000000.0  0.000503  3.54e-05  4.39e-05
4500000.0  1262000000000.0  53789999999.99999  0.0005424000000000001  3.66e-05  4.5700000000000006e-05
5000000.0  1385000000000.0  49700000000.0  0.0005784000000000001  3.7500000000000003e-05  4.730000000000001e-05
5500000.0  1508000000000.0  46230000000.0  0.0006117000000000001  3.8400000000000005e-05  4.860000000000001e-05
6000000.0  1628000000000.0  43270000000.0  0.0006424  3.9e-05  4.980000000000001e-05
6500000.0  1747000000000.0  40690000000.0  0.0006712  3.96e-05  5.08e-05
7000000.0  1862000000000.0  38430000000.0  0.0006981000000000001  4.01e-05  5.17e-05
8000000.0  2080000000000.0  34650000000.0  0.0007477  4.1200000000000005e-05  5.31e-05
9000000.0  2279000000000.0  31600000000.0  0.0007927  4.2000000000000004e-05  5.43e-05
10000000.0  2458000000000.0  29080000000.0  0.0008342000000000001  4.2800000000000004e-05  5.530000000000001e-05
11000000.0  2617000000000.0  26970000000.0  0.0008730000000000001  4.3400000000000005e-05  5.610000000000001e-05
12000000.0  2756000000000.0  25170000000.0  0.0009098000000000001  4.39e-05  5.690000000000001e-05
13000000.0  2878000000000.0  23610000000.000004  0.0009449  4.43e-05  5.75e-05
14000000.0  2984000000000.0  22240000000.000004  0.0009786  4.4800000000000005e-05  5.81e-05
15000000.0  3077000000000.0  21040000000.0  0.0010113000000000001  4.51e-05  5.860000000000001e-05
16000000.0  3158000000000.0  19980000000.0  0.0010431000000000001  4.55e-05  5.910000000000001e-05
17000000.0  3228000000000.0  19020000000.0  0.0010742000000000002  4.58e-05  5.950000000000001e-05
18000000.0  3290000000000.0  18160000000.0  0.0011046  4.610000000000001e-05  5.9900000000000006e-05
20000000.0  3393000000000.0  16660000000.0  0.0011641000000000002  4.7100000000000006e-05  6.06e-05
22500000.0  3492000000000.0  15129999999.999998  0.0012363  4.8400000000000004e-05  6.14e-05
25000000.0  3568000000000.0  13879999999.999998  0.0013067  4.9600000000000006e-05  6.21e-05
27500000.0  3626000000000.0  12830000000.0  0.0013759000000000002  5.0700000000000006e-05  6.27e-05
30000000.0  3672000000000.0  11940000000.0  0.0014441  5.17e-05  6.330000000000001e-05
32500000.0  3707000000000.0  11170000000.0  0.0015116  5.27e-05  6.390000000000001e-05
35000000.0  3734000000000.0  10500000000.0  0.0015785  5.3700000000000004e-05  6.440000000000001e-05
37500000.0  3754000000000.0  9913000000.0  0.0016450000000000002  5.4600000000000006e-05  6.48e-05
40000000.0  3768000000000.0  9392000000.0  0.0017113  5.55e-05  6.53e-05
45000000.0  3782000000000.0  8509000000.0  0.0018433000000000002  5.8800000000000006e-05  6.610000000000001e-05
50000000.0  3780000000000.0  7786999999.999999  0.0019752000000000003  6.18e-05  6.690000000000001e-05
55000000.0  3767000000000.0  7185000000.0  0.0021074  6.47e-05  6.76e-05
60000000.0  3744000000000.0  6674000000.0  0.0022403  6.75e-05  6.83e-05
65000000.0  3716000000000.0  6236000000.0  0.0023740000000000002  7.02e-05  6.900000000000001e-05
70000000.0  3683000000000.0  5855000000.0  0.0025089  7.290000000000001e-05  6.960000000000001e-05
80000000.0  3608000000000.0  5225000000.0  0.0027827999999999998  8.27e-05  7.08e-05
90000000.0  3528000000000.0  4724000000.0  0.0030627000000000002  9.19e-05  7.2e-05
100000000.0  3445000000000.0  4316000000.0  0.0033491000000000007  0.00010060000000000002  7.32e-05
110000000.0  3398000000000.0  3977000000.0  0.0036411000000000004  0.00010890000000000002  7.44e-05
120000000.0  3331000000000.0  3689000000.0  0.0039380000000000005  0.0001168  7.560000000000001e-05
130000000.0  3265000000000.0  3443000000.0  0.0042408  0.00012460000000000002  7.670000000000001e-05
140000000.0  3206000000000.0  3229000000.0  0.0045496  0.0001321  7.790000000000001e-05
150000000.0  3149000000000.0  3042000000.0000005  0.0048639  0.00013960000000000003  7.910000000000001e-05
160000000.0  3095000000000.0  2877000000.0  0.005184  0.00014680000000000002  8.03e-05
170000000.0  3042000000000.0  2728999999.9999995  0.005509600000000001  0.000154  8.150000000000002e-05
180000000.0  2991000000000.0  2597000000.0  0.0058409  0.0001611  8.27e-05
200000000.0  2894000000000.0  2369000000.0  0.0065202  0.00018780000000000004  8.510000000000001e-05
225000000.0  2782000000000.0  2138000000.0  0.007400700000000001  0.00022550000000000003  8.83e-05
250000000.0  2678000000000.0  1949000000.0  0.008316100000000002  0.00026030000000000004  9.16e-05
275000000.0  2581000000000.0  1792999999.9999998  0.0092666  0.0002932  9.5e-05
300000000.0  2490000000000.0  1661000000.0  0.0103  0.0003248  9.86e-05
325000000.0  2405000000000.0  1549000000.0  0.0113  0.0003557  0.00010220000000000002
350000000.0  2324000000000.0  1451000000.0  0.0123  0.00038600000000000006  0.0001061
375000000.0  2248000000000.0  1365000000.0  0.0134  0.00041600000000000003  0.00011
400000000.0  2177000000000.0  1290000000.0  0.0146  0.0004458  0.00011410000000000001
450000000.0  2044000000000.0  1162000000.0  0.0169  0.0005581000000000001  0.0001227
